Frequency,Nominal,Min,Max
30347.383627796957,0.000002241181914648086,0.000002196760314740615,0.0000022907956225624584
31054.26500038031,0.000002241407804515691,0.000002197012683317975,0.000002290992846061428
31777.611755318663,0.000002241644423491983,0.000002197277026166341,0.0000022911994542405194
32517.807420636098,0.0000022418922853595646,0.000002197553915455369,0.00000229141589819174
33275.244457872024,0.0000022421519289149616,0.0000021978439510873022,0.000002291642651136904
34050.32447016944,0.0000022424239192275393,0.0000021981477620801115,0.0000022918802095577213
34843.458415210276,0.0000022427088489652284,0.0000021984660080220704,0.000002292129094388222
35655.066823110545,0.0000022430073397912253,0.0000021987993806047585,0.0000022923898522726924
36485.58001939103,0.0000022433200438371597,0.000002199148605236223,0.000002292663056894387
37335.438353141544,0.0000022436476452561647,0.0000021995144427407663,0.0000022929493103782087
38205.09243049983,0.0000022439908618603024,0.0000021998976911502553,0.000002293249244773468
39095.003353568965,0.0000022443504468496665,0.0000022002991875912998,0.0000022935635236207234
40005.64296489971,0.000002244727190636353,0.0000022007198102756843,0.0000022938928436084947
40937.49409766772,0.0000022451219227710994,0.0000022011604805990806,0.000002294237936326768
41891.05083167811,0.0000022455355139784343,0.0000022016221653551936,0.000002294599570122468
42866.81875533307,0.0000022459688783069505,0.000002202105879072321,0.000002294978552064758
43865.31523370153,0.000002246422975403487,0.000002202612686480461,0.0000022953757300273
44887.06968283299,0.0000022468988129177657,0.000002203143705116352,0.0000022957919948957654
45932.623850460885,0.0000022473974490475357,0.0000022037001080757816,0.0000022962282829099366
47002.532103244455,0.0000022479199952331245,0.000002204283126923026,0.0000022966855781488995
48097.36172070122,0.0000022484676190118306,0.000002204894054766762,0.0000022971649151717763
49217.69319598616,0.0000022490415470427184,0.000002205534249514381,0.000002297667381822471
50364.120543676785,0.0000022496430683153694,0.0000022062051373158256,0.000002298194122214802
51537.25161472762,0.0000022502735375533576,0.000002206908216210631,0.0000022987463399078293
52737.70841876075,0.0000022509343788291312,0.000002207645059991253,0.0000022993253012884286
53966.127453863606,0.000002251627089403793,0.000002208417322298241,0.0000022999323391774563
55223.160044068645,0.0000022523532438098217,0.000002209226740963521,0.0000023005688566756885
56509.47268469399,0.0000022531144981947824,0.000002210075142619433,0.000002301236331271521
57825.747395728045,0.0000022539125949457727,0.000002210964447592034,0.00000230193631922983
59172.68208344558,0.0000022547493676178053,0.0000022118966751016192,0.000002302670460286582
60550.990910446795,0.00000225562674618848,0.000002212873948790306,0.0000023034404826766484
61961.40467431585,0.000002256546762666916,0.000002213898502604184,0.0000023042482085206795
63404.67119509937,0.0000022575115570861435,0.000002214972687055481,0.00000230509555960682
64881.55571181057,0.000002258523383909243,0.000002216098975895269,0.0000023059845635995876
66392.84128816909,0.0000022595846188877094,0.0000022172799732285854,0.000002306917360717619
67939.32922779175,0.0000022606977664076473,0.0000022185184211087144,0.000002307896210921959
69521.8394990543,0.0000022618654673708675,0.000002219817207647867,0.0000023089235016668314
71141.2111698496,0.0000022630905076555573,0.0000022211793756903164,0.0000023100017562636914
72798.30285247239,0.000002264375827213058,0.0000022226081320923316,0.0000023111336429228835
74493.99315886703,0.000002265724529857737,0.0000022241068576644086,0.0000023123479320766684
76229.18116647907,0.0000022671398938188073,0.000002225679117832161,0.000002313673078885377
78004.78689495807,0.000002268625383126506,0.000002227328674081293,0.000002315091261631585
79821.7517939642,0.0000022701846599172323,0.0000022290594962585212,0.000002316653237730134
81681.03924233728,0.000002271821597750997,0.0000022308442404555304,0.0000023182927295343483
83583.63505889302,0.000002273540296046686,0.0000022326675808295247,0.000002320013813766823
85530.54802511718,0.0000022753450957535483,0.000002234582589261723,0.0000023218208077657806
87522.8104200349,0.0000022772405963943293,0.0000022365941656126524,0.000002323718286776747
89561.47856753868,0.0000022792316746324635,0.0000022387075009479056,0.000002325711102852934
91647.63339646529,0.000002281323504536532,0.0000022409280978429754,0.0000023278044055595823
93782.38101371854,0.000002283521579739577,0.00000224326179242231,0.000002330003664700197
95966.85329074181,0.000002285831737719792,0.000002245650249844362,0.000002332314695319295
98202.20846365132,0.0000022882601864605902,0.000002248084371431636,0.000002334743685271156
100489.63174734815,0.000002290813533787688,0.000002250643926284386,0.000002337297225692301
102830.33596393495,0.000002293498819724155,0.0000022533359701412003,0.000002339982344761718
105225.56218577024,0.0000022963235522594244,0.000002256168020659993,0.0000023428065452010307
107676.5803935014,0.000002299295746987498,0.000002259148095121209,0.0000023457778460315477
110184.69014942522,0.0000023024239711443988,0.0000022622847521061935,0.0000023489048291954708
112751.22128653307,0.000002305717392659749,0.000002265587137688729,0.000002352196691743085
115377.53461360588,0.0000023091858349390935,0.000002269065036756738,0.0000023556633044087506
118065.02263673305,0.000002312839838212732,0.0000022727289301899742,0.0000023593152775326044
120815.11029763753,0.0000023166907284292437,0.0000022765900587372148,0.0000023633339684679
123629.25572919885,0.0000023207506948351524,0.0000022806604945816373,0.0000023676074897674855
126508.95102857446,0.000002325032877584266,0.0000022849532217524894,0.000002372113889114649
129455.72304832934,0.0000023295514669469236,0.0000022894822267448515,0.0000023768679744869323
132471.13420599353,0.0000023343218159620336,0.000002294143622093769,0.0000023818857687576897
135556.78331247647,0.000002339360568697386,0.0000022989390498449202,0.000002387184645132948
138714.30641977786,0.0000023446858066496787,0.0000023040074669915733,0.000002392783482037469
141945.3776884439,0.000002350317216248087,0.0000023093676212980227,0.000002398702840660782
145251.71027522956,0.0000023562762809217715,0.0000023150399623218918,0.0000024049651689123893
148635.0572414368,0.0000023625865017451155,0.0000023210468482667468,0.000002411595036137789
152097.21248241104,0.0000023692736513118315,0.000002327412783706439,0.000002418619403618586
155640.01167868805,0.0000023763660661641865,0.0000023341646931381995,0.0000024260679366050654
159265.3332692962,0.000002383894983839173,0.0000023413322360169563,0.000002433973364389044
162975.09944772965,0.000002391894931324916,0.000002348948169647122,0.0000024423718956650622
166771.27718112073,0.0000024004041724040125,0.0000023570487670054863,0.0000024513036970895203
170655.8792531521,0.000002409465221897886,0.000002365674297171678,0.0000024608134433884404
174630.96533126108,0.0000024191254350631576,0.000002374869576423359,0.000002470950947422825
178698.64305870276,0.0000024294376800950526,0.0000023846845980247643,0.000002481771877983962
182861.06917205034,0.000002440461100519901,0.0000023951752480161753,0.000002493338571359469
187120.45064472535,0.000002452261971679541,0.000002406404112465944,0.0000025057209392345462
191479.04585716416,0.00000246491465078275,0.000002418441378056605,0.0000025189974693730278
195939.16579424127,0.0000024785026120099076,0.0000024313658216254234,0.000002533268386249217
200503.17527058395,0.0000024931195453588387,0.0000024451453349491377,0.000002548881865055274
205173.49418442833,0.0000025088704780793552,0.0000024596805148919373,0.0000025656839630424544
209952.59880068156,0.0000025258728475790056,0.000002475301216033485,0.000002583815158504879
214843.02306387012,0.000002544257410322528,0.000002492241791969143,0.0000026036725269497203
219847.3599416707,0.0000025641688067243513,0.000002510641641598415,0.0000026251234180059742
224968.2627997362,0.0000025857655097604903,0.000002530654052170766,0.0000026484911362895347
230208.44680854512,0.0000026092187553344453,0.0000025524456528543347,0.0000026743417758163225
235570.69038302096,0.0000026347098737650974,0.000002575685392123433,0.0000027023236394254895
241057.83665568457,0.0000026624252015897835,0.000002600933981402993,0.0000027326169479287035
246672.7949841207,0.000002692547440462725,0.0000026285026001589542,0.0000027653918504856964
252418.54249355785,0.0000027252419422969923,0.000002658572422311569,0.0000028007915711694464
258298.1256553795,0.0000027606359535654565,0.0000026912981397382486,0.000002838907380657976
264314.6619024035,0.0000027987884041744702,0.0000027267827358192024,0.0000028797427777387366
270471.3412817863,0.00000283964751024522,0.0000027647983002024434,0.000002923164087511192
276771.42814642814,0.000002882993533988449,0.0000028050250572468648,0.0000029688350831148896
283218.2628857762,0.000002928364952300354,0.00000284759129605891,0.000003016134771166971
289815.2636969432,0.000002974968702589143,0.0000028918947208393543,0.000003064764673411617
296565.9283970808,0.00000302157995713177,0.0000029369530539840154,0.0000031126085894191557
303473.83627796866,0.0000030664447971058005,0.0000029813036197865652,0.000003157505999866142
310542.65000380226,0.0000031072102172170088,0.00000302291696491915,0.0000031979593622217764
317776.11755318573,0.0000031409181262237016,0.000003059155188858185,0.000003230550209055236
325178.0742063601,0.0000031641080884465825,0.000003086816525478554,0.0000032507944111760452
332752.4445787193,0.000003173068441265678,0.0000031012342776949895,0.0000032548118681362614
340503.2447016935,0.0000031642473205325015,0.000003097903424630871,0.0000032390834930314967
348434.5841521018,0.0000031347812600476416,0.000003075476762375231,0.000003201032449488022
356550.6682311045,0.000003083033509514769,0.000003031931867026442,0.000003139589108971686
364855.8001939093,0.0000030089902175087728,0.000002959150698658473,0.0000030650167645574346
373354.38353141444,0.000002914376560043036,0.0000028645760223304925,0.0000029690517624225333
382050.9243049974,0.00000280243681898509,0.000002746420433621893,0.000002861019396853418
390950.03353568865,0.0000026774381856013687,0.000002617273033463401,0.0000027410278893629315
400056.4296489959,0.0000025440472331179974,0.0000024818098650746196,0.0000026105431454921354
409374.94097667607,0.0000024067471280664333,0.0000023442982527314106,0.0000024741702003905896
418910.50831678,0.000002269415231301984,0.0000022082657482071427,0.0000023360863004982153
428668.18755332945,0.0000021351031388366884,0.000002076368734114833,0.0000021997275913996582
438653.152337014,0.0000020059956470606504,0.0000019504168294270265,0.000002067670314570443
448870.69682832854,0.000001883491798714039,0.0000018314910538738405,0.0000019416615864219103
459326.23850460746,0.0000017683478234325802,0.0000017201001842892483,0.0000018227387396582157
470025.32103244314,0.0000016608354613773714,0.0000016163369641536729,0.0000017113835379931965
480973.61720701086,0.0000015608873357817043,0.0000015200134314467427,0.0000016076747191738744
492176.9319598601,0.0000014682164194781026,0.0000014307677836601557,0.0000015114194109688724
503641.2054367664,0.0000013824068424020608,0.0000013481431126873547,0.0000014222565561801547
515372.51614727464,0.0000013029787585712292,0.000001271642113545252,0.0000013397329657344609
527377.0841876059,0.000001229432161368611,0.0000012007630060763349,0.0000012634368843747405
539661.2745386343,0.0000011612748009637148,0.0000011347386386916931,0.0000011932256025927458
552231.6004406847,0.0000010980387237622344,0.000001073287684304832,0.0000011281106084453299
565094.726846938,0.0000010392890256064475,0.0000010161645255573636,0.0000010676456472707346
578257.4739572785,9.846274972491778e-7,9.629840576415e-7,0.000001011419437860306
591726.8208344538,9.336930698083615e-7,9.133983584006739e-7,9.590574169719406e-7
605509.9091044659,8.861603697229667e-7,8.670946495003756e-7,9.102210672819017e-7
619614.0467431563,8.417372530011388e-7,8.237925202947113e-7,8.646058767725344e-7
634046.7119509913,8.001618776231286e-7,7.832408684770474e-7,8.219386134993162e-7
648815.5571181034,7.611996597194339e-7,7.452148326029825e-7,7.8197434661164e-7
663928.4128816884,7.246403167126597e-7,7.095128733722722e-7,7.444934734470554e-7
679393.2922779149,6.90295107865792e-7,6.759540844944952e-7,7.092988998208539e-7
695218.3949905406,6.579943239247074e-7,6.443757664385228e-7,6.762134483097642e-7
711412.1116984935,6.275850415502671e-7,6.146312677777385e-7,6.450775242993672e-7
727983.0285247214,5.989291371768341e-7,5.865880825678963e-7,6.157470426127664e-7
744939.9315886677,5.719015434756985e-7,5.598855732681204e-7,5.880916023154961e-7
762291.8116647879,5.463887261643317e-7,5.346688795790938e-7,5.619928895128162e-7
780047.8689495779,5.222873571287004e-7,5.108456188641407e-7,5.373553527779963e-7
798217.517939639,4.995031601843418e-7,4.883235407283056e-7,5.142821493962418e-7
816810.3924233698,4.779499073200039e-7,4.6701817541782177e-7,4.92471686084353e-7
835836.350588927,4.57548545336235e-7,4.468520057660536e-7,4.718278571892332e-7
855305.4802511685,4.3822643504483834e-7,4.2775374349824265e-7,4.522758612239575e-7
875228.1042003457,4.1991668741909905e-7,4.096576956162293e-7,4.337469271584512e-7
895614.7856753833,4.0255758316645335e-7,3.925032085064746e-7,4.1617769674880356e-7
916476.3339646494,3.860920640763653e-7,3.7622263297967993e-7,3.995621045795917e-7
937823.8101371817,3.7046728616311595e-7,3.607243451236625e-7,3.83801560942875e-7
959668.5329074145,3.5563422607468236e-7,3.460181196176665e-7,3.6883132319377497e-7
982022.0846365095,3.4154733349210655e-7,3.320586145444492e-7,3.546054128944217e-7
1004896.3174734777,3.2816422331640663e-7,3.187728638053416e-7,3.4108112215724037e-7
1028303.3596393456,3.154454023540365e-7,3.061162499569084e-7,3.282187262751567e-7
1052255.6218576983,3.0335402598823706e-7,2.9408890219046843e-7,3.1598122875483734e-7
1076765.8039350098,2.918556809815208e-7,2.826565548504733e-7,3.043341345090194e-7
1101846.901494248,2.8091819111046083e-7,2.7178713483102837e-7,2.932452475789158e-7
1127512.2128653263,2.705114428062985e-7,2.614505932221502e-7,2.8268449027670017e-7
1153775.3461360543,2.606072283718315e-7,2.516187533992401e-7,2.726237410798305e-7
1180650.2263673258,2.5117910468439154e-7,2.422651736485398e-7,2.630366889812675e-7
1208151.1029763704,2.42202265579475e-7,2.3336502267931997e-7,2.5390746952171036e-7
1236292.5572919836,2.3365342635385147e-7,2.2489496659233246e-7,2.452737158610569e-7
1265089.5102857396,2.2551071903258125e-7,2.16833066060959e-7,2.3703976362440177e-7
1294557.2304832882,2.1775359722155176e-7,2.0915868264046733e-7,2.291858401908762e-7
1324711.3420599299,2.103627495164198e-7,2.0185239325742088e-7,2.2169339594520163e-7
1355567.8331247591,2.0332002056826778e-7,1.948420916217239e-7,2.1454502925450682e-7
1387143.0641977729,1.966083390159372e-7,1.8816601890248838e-7,2.0772441784073554e-7
1419453.776884433,1.902116515898521e-7,1.8180887015780434e-7,2.012162558791167e-7
1452517.1027522895,1.8411486277377178e-7,1.7575508638967922e-7,1.950061962318927e-7
1486350.5724143619,1.783037794809129e-7,1.6999001649828403e-7,1.8908079729408132e-7
1520972.124824104,1.7276506026194145e-7,1.6449986380803907e-7,1.8342747398689096e-7
1556400.116786874,1.674861686147529e-7,1.5927163694213852e-7,1.7803445248611945e-7
1592653.3326929554,1.6245533001201552e-7,1.542931046500572e-7,1.72890728317169e-7
1629750.9944772897,1.5766149230189219e-7,1.4955275423456041e-7,1.679860274881544e-7
1667712.7718112005,1.5309428917225317e-7,1.450397532613125e-7,1.6331077036671628e-7
1706558.7925315138,1.4874400639898594e-7,1.4074391426612236e-7,1.5885603803655207e-7
1746309.6533126032,1.4460155062546572e-7,1.3665566220268606e-7,1.5461354089647872e-7
1786986.4305870202,1.4065842044345306e-7,1.3276600439813098e-7,1.5057558928790804e-7
1828610.691720496,1.369066795659395e-7,1.2906650280468844e-7,1.4673506595694984e-7
1871204.506447246,1.3333893190033238e-7,1.2554924835473362e-7,1.4308540017511774e-7
1914790.4585716338,1.2994829834572808e-7,1.2220683724212246e-7,1.3962054335683734e-7
1959391.6579424045,1.2672839515134943e-7,1.190323489673422e-7,1.363349460245974e-7
2005031.7527058308,1.2367331368479416e-7,1.1601932599549267e-7,1.3322353598159113e-7
2051734.9418442745,1.207776014682136e-7,1.1316175488701765e-7,1.3028169755852017e-7
2099525.988006807,1.1803624434836619e-7,1.1045404876944595e-7,1.275052518046607e-7
2148430.2306386917,1.1544464967235721e-7,1.0789103102582224e-7,1.248904374939091e-7
2198473.5994166974,1.12998630345093e-7,1.054679200810737e-7,1.2243389281304565e-7
2249682.6279973523,1.1069438964607542e-7,1.0318031517191392e-7,1.2013263759256513e-7
2302084.4680854413,1.0852850668338522e-7,1.0102418298842154e-7,1.1798405592848583e-7
2355706.903830199,1.0649792235929172e-7,9.899584507661896e-8,1.1598587902705652e-7
2410578.3665568354,1.0459992571665178e-7,9.709196589067739e-8,1.1413616808144803e-7
2466727.9498411966,1.0283214052588843e-7,9.530954138073141e-8,1.1243329696050062e-7
2524185.424935568,1.0119251195957966e-7,9.364588799755084e-8,1.1087593445275747e-7
2582981.256553784,9.967929318406017e-8,9.20986319879008e-8,1.0946302576354839e-7
2643146.6190240243,9.829103167497431e-8,9.066569884423362e-8,1.0819377290780603e-7
2704713.412817852,9.702655503477319e-8,8.934530275866317e-8,1.0706761357486336e-7
2767714.2814642703,9.588495605438452e-8,8.813593591361416e-8,1.0613584709575577e-7
2832182.6288577504,9.486557671742486e-8,8.7036357418955e-8,1.054275497973124e-7
2898152.6369694197,9.396799079196702e-8,8.60455816779697e-8,1.0485427434595986e-7
2965659.2839707956,9.31919845910067e-8,8.516286593002377e-8,1.0441758656880189e-7
3034738.362779674,9.253753540717042e-8,8.431951320800939e-8,1.0412654731314431e-7
3105426.5000380096,9.20047870382562e-8,8.343902476479364e-8,1.0397859371065626e-7
3177761.175531844,9.159402171708327e-8,8.26777326254449e-8,1.0397149024692522e-7
3251780.7420635875,9.13056276409625e-8,8.203576520205407e-8,1.0410032192852767e-7
3327524.4457871793,9.11400611627694e-8,8.150607831754547e-8,1.0436519114593298e-7
3405032.4470169204,9.109780255749203e-8,8.109064295115472e-8,1.0480326704696981e-7
3484345.841521003,9.117930411798075e-8,8.078823837920192e-8,1.0542623575680352e-7
3565506.682311029,9.138492916522619e-8,8.06065592405625e-8,1.0617886196422333e-7
3648558.001939077,9.171488038932325e-8,8.054598734470006e-8,1.0705966831505108e-7
3733543.8353141276,9.216911577909065e-8,8.060684876880239e-8,1.080664595041263e-7
3820509.2430499564,9.274725026800417e-8,8.07893602243324e-8,1.0919613878369642e-7
3909500.3353568693,9.344844114664831e-8,8.109356562252703e-8,1.104445002949485e-7
4000564.2964899424,9.427125530156891e-8,8.151926119282342e-8,1.1180599700102837e-7
4093749.409766743,9.521351648316418e-8,8.2065907385115e-8,1.1327348538821433e-7
4189105.083167781,9.627213114139254e-8,8.273252571162253e-8,1.1483795007450233e-7
4286681.875533275,9.744289197246984e-8,8.351757868827077e-8,1.1648821413617569e-7
4386531.523370121,9.872025928363328e-8,8.441883116105432e-8,1.1821064442227801e-7
4488706.968283265,1.000971217091634e-7,8.543319160494548e-8,1.1998886540499085e-7
4593262.385046055,1.015645398087404e-7,8.655653253066191e-8,1.218035001374188e-7
4700253.21032441,1.0311147874916287e-7,8.778349001177924e-8,1.2363196242098742e-7
4809736.172070087,1.0472453968293651e-7,8.910724364683537e-8,1.25448329853599e-7
4921769.319598579,1.0638770359658211e-7,9.051928009999396e-8,1.2722333227623265e-7
5036412.054367641,1.0808210620094437e-7,9.200914581425424e-8,1.289244931741405e-7
5153725.161472724,1.0978586759878098e-7,9.356419763112828e-8,1.3051646143944488e-7
5273770.8418760365,1.1147400548378096e-7,9.516936388975614e-8,1.3196156602208531e-7
5396612.74538632,1.1311846471115167e-7,9.680693302478152e-8,1.3322061495123222e-7
5522316.004406823,1.1468829814487146e-7,9.845639149016445e-8,1.3425394209247758e-7
