Frequency,Nominal,Min,Max
0,0
2.5390625e-8,0
5.078125e-8,5.270067940478896e-7
7.6171875e-8,1.1382861313869323e-7
1.015625e-7,0.0000010115186985276262
1.26953125e-7,0.0000024825604707282198
1.5234375e-7,0.000004979047976305067
1.7773437499999998e-7,0.00000951140067161327
2.03125e-7,0.000017753984149084164
2.28515625e-7,0.00003229002404620008
2.5390625e-7,0.00005701006549550792
2.7929687499999996e-7,0.0000976927272922694
3.046875e-7,0.00016278557801071037
3.30078125e-7,0.000264393263697629
3.5546874999999996e-7,0.0004194706196722368
3.80859375e-7,0.0006512104761920398
4.0625e-7,0.000990609192252201
4.3164062499999996e-7,0.00147818755488774
4.5703125e-7,0.0021658404720743306
4.82421875e-7,0.0031187857639029346
5.078125e-7,0.004417580213678916
5.332031249999999e-7,0.00616016977319026
5.585937499999999e-7,0.00846394032313015
5.83984375e-7,0.01146773557390228
6.09375e-7,0.015333809462795906
6.34765625e-7,0.020249681675852706
6.6015625e-7,0.026429866617885402
6.855468749999999e-7,0.03411744819939158
7.109374999999999e-7,0.043585475137837074
7.36328125e-7,0.05513815402201043
7.6171875e-7,0.06911182010641559
7.87109375e-7,0.08587566863774398
8.125e-7,0.1058322324220698
8.378906249999999e-7,0.1294175942789377
8.632812499999999e-7,0.15710132596075688
8.886718749999999e-7,0.1893861480108076
9.140625e-7,0.22680730786251105
9.39453125e-7,0.26993167622183817
9.6484375e-7,0.31935656440263926
9.90234375e-7,0.37570826778323196
0.000001015625,0.4396403429066479
0.0000010410156249999999,0.5118316279441203
0.0000010664062499999999,0.5929840182717623
0.0000010917968749999999,0.6838200107663549
0.0000011171874999999998,0.785080032102239
0.000001142578125,0.8975195678239469
0.00000116796875,1.0219061102766536
0.000001193359375,1.1590159445985817
0.00000121875,1.309630792917482
0.000001244140625,1.4745343376497888
0.00000126953125,1.6545086453798208
0.000001294921875,1.8503305132022065
0.0000013203125,2.062767759649356
0.0000013457031249999999,2.2925754824036675
0.0000013710937499999999,2.540492304918599
0.0000013964843749999999,2.807236633851373
0.0000014218749999999998,3.0935029488513073
0.0000014472656249999998,3.399958145760148
0.00000147265625,3.7272379536733897
0.000001498046875,4.075943445593502
0.0000015234375,4.446637661586666
0.000001548828125,4.839842362443553
0.00000157421875,5.256034930851212
0.000001599609375,5.6956454360168305
0.000001625,6.159053876554406
0.0000016503906249999999,6.646587615261216
0.0000016757812499999999,7.158519018181835
0.0000017011718749999998,7.695063309091838
0.0000017265624999999998,8.256376649240048
0.0000017519531249999998,8.842554450875484
0.0000017773437499999998,9.453629931761173
0.000001802734375,10.089572916549065
0.000001828125,10.750288889566342
0.000001853515625,11.435618302249765
0.00000187890625,12.145336137168352
0.000001904296875,12.879151729301663
0.0000019296875,13.63670884399723
0.000001955078125,14.417586009820933
0.00000198046875,15.221297103344565
0.000002005859375,16.0472921817884
0.00000203125,16.894958558358905
0.000002056640625,17.763622114095217
0.0000020820312499999998,18.65254883906711
0.0000021074218749999998,19.560946594853245
0.0000021328124999999997,20.487967089376177
0.0000021582031249999997,21.43270805437928
0.0000021835937499999997,22.394215615104706
0.0000022089843749999997,23.371486841070002
0.0000022343749999999997,24.36347246624655
0.0000022597656249999997,25.36907976641488
0.00000228515625,26.387175581011757
0.000002310546875,27.416589466390008
0.0000023359375,28.456116967086352
0.000002361328125,29.504522991431305
0.00000238671875,30.560545277641186
0.000002412109375,31.622897936400655
0.0000024375,32.69027505587644
0.000002462890625,33.76135435509607
0.00000248828125,34.8348008716772
0.000002513671875,35.90927067000319
0.0000025390625,36.98341455610448
0.000002564453125,38.055881785723
0.00000258984375,39.12532375230419
0.000002615234375,40.19039764197544
0.000002640625,41.24977004293072
0.000002666015625,42.302120497041734
0.0000026914062499999998,43.34614498195751
0.0000027167968749999998,44.380559312431316
0.0000027421874999999997,45.404102450123574
0.0000027675781249999997,46.41553971167035
0.0000027929687499999997,47.41366586537385
0.0000028183593749999997,48.39730810746293
0.0000028437499999999997,49.36532890948423
0.0000028691406249999996,50.31662872901428
0.0000028945312499999996,51.25014857652848
0.0000029199218749999996,52.164872431919875
0.0000029453125,53.059829504826766
0.000002970703125,53.93409633360065
0.00000299609375,54.786798718421515
0.000003021484375,55.61711348474426
0.000003046875,56.42427007393463
0.000003072265625,57.207551958622396
0.00000309765625,57.966297880963964
0.000003123046875,58.699902912659994
0.0000031484375,59.407819336215475
0.000003173828125,60.08955734756115
0.00000319921875,60.74468558076608
0.000003224609375,61.37283145616969
0.00000325,61.97368135383774
0.0000032753906249999998,62.546980614804134
0.0000033007812499999998,63.09253337309358
0.0000033261718749999997,63.6102022220331
0.0000033515624999999997,64.09990771884478
0.0000033769531249999997,64.56162773197342
0.0000034023437499999997,64.99539663603679
0.0000034277343749999997,65.40130435969131
0.0000034531249999999997,65.77949529208465
0.0000034785156249999996,66.13016705391443
0.0000035039062499999996,66.45356913943367
0.0000035292968749999996,66.75000143603106
0.0000035546874999999996,67.01981262827577
0.000003580078125,67.26339849354599
0.00000360546875,67.4812000965598
0.000003630859375,67.67370189029774
0.00000365625,67.84142973094573
0.000003681640625,67.98494881460009
0.00000370703125,68.10486154355516
0.000003732421875,68.20180533005114
0.0000037578125,68.27645034538295
0.000003783203125,68.32949722227121
0.00000380859375,68.36167471836703
0.000003833984375,68.37373734871079
0.000003859375,68.3664629948848
0.000003884765625,68.34065049849939
0.00000391015625,68.29711724652658
0.000003935546875,68.2366967558485
0.0000039609375,68.16023626422182
0.000003986328125,68.0685943346712
0.00000401171875,67.96263848012062
0.000004037109375,67.84324281484939
0.0000040625,67.71128573912092
0.000004087890625,67.56764766307892
0.00000411328125,67.41320877574117
0.000004138671875,67.24884686464019
0.0000041640624999999996,67.07543519137204
0.0000041894531249999996,66.89384042801497
0.0000042148437499999995,66.70492065907162
0.0000042402343749999995,66.509523453274
0.0000042656249999999995,66.30848400927005
0.0000042910156249999995,66.10262337888435
0.0000043164062499999995,65.8927467713172
0.0000043417968749999994,65.67964194131552
0.0000043671874999999994,65.46407766401502
0.000004392578124999999,65.24680229882267
0.000004417968749999999,65.02854244437508
0.000004443359374999999,64.8100016862818
0.000004468749999999999,64.59185943903232
0.000004494140624999999,64.3747698831283
0.000004519531249999999,64.1593609981816
0.000004544921874999999,63.9462336924099
0.0000045703125,63.735961028656384
0.000004595703125,63.52908754676373
0.00000462109375,63.32612868184378
0.000004646484375,63.12757027770582
0.000004671875,62.933868194435505
0.000004697265625,62.745448008858226
0.00000472265625,62.56270480637169
0.000004748046875,62.38600306239522
0.0000047734375,62.21567661145823
0.000004798828125,62.05202870173709
0.00000482421875,61.89533213264849
0.000004849609375,61.74582947292028
0.000004875,61.603733356385405
0.000004900390625,61.46922685258369
0.00000492578125,61.342463909107074
0.000004951171875,61.223569862490876
0.0000049765625,61.112642014330966
0.000005001953125,61.00975026920069
0.00000502734375,60.9149378308466
0.000005052734375,60.82822195306193
0.000005078125,60.749594741569574
0.000005103515625,60.67902400319208
0.00000512890625,60.616454138545706
0.000005154296875,60.561807074466905
0.0000051796875,60.51498323236374
0.000005205078125,60.47586252868127
0.00000523046875,60.444305403678385
0.000005255859375,60.420153874732435
0.00000528125,60.403232610419806
0.000005306640625,60.393350021660936
0.00000533203125,60.39029936627106
0.0000053574218749999996,60.39385986331819
0.0000053828124999999995,60.4037978137621
0.0000054082031249999995,60.419867723926195
0.0000054335937499999995,60.44181342844353
0.0000054589843749999995,60.469369209412804
0.0000054843749999999995,60.50226090860414
0.0000055097656249999995,60.540207029664394
0.0000055351562499999994,60.58291982738673
0.000005560546874999999,60.63010638123259
0.000005585937499999999,60.6814696504201
0.000005611328124999999,60.73670950802458
0.000005636718749999999,60.795523751673485
0.000005662109374999999,60.85760908855599
0.000005687499999999999,60.92266209261019
0.000005712890624999999,60.9903801318964
0.000005738281249999999,61.060462264309805
0.000005763671874999999,61.13261009993577
0.000005789062499999999,61.20652862849851
0.000005814453124999999,61.28192701050461
0.000005839843749999999,61.35851933083103
0.000005865234375,61.43602531365712
0.000005890625,61.51417099778808
0.000005916015625,61.59268937156297
0.00000594140625,61.67132096668697
0.000005966796875,61.74981441046815
0.0000059921875,61.82792693608111
0.000006017578125,61.905424850615624
0.00000604296875,61.98208396080317
0.000006068359375,62.05768995644386
0.00000609375,62.13203875168409
0.000006119140625,62.20493678441588
0.00000614453125,62.27620127418785
0.000006169921875,62.345660439131464
0.0000061953125,62.413153672513
0.000006220703125,62.478531679627125
0.00000624609375,62.54165657584468
0.000006271484375,62.602401946720185
0.000006296875,62.66065287115299
0.000006322265625,62.71630590867643
0.00000634765625,62.76926905202586
0.000006373046875,62.81946164620728
0.0000063984375,62.866814275350976
0.000006423828125,62.911268618696084
0.00000644921875,62.952777277101205
0.000006474609375,62.991303571526636
0.0000065,63.026821314972345
0.000006525390625,63.0593145593923
0.0000065507812499999996,63.08877731913591
0.0000065761718749999995,63.11521327249005
0.0000066015624999999995,63.13863544291523
0.0000066269531249999995,63.15906586158122
0.0000066523437499999995,63.17653521281651
0.0000066777343749999995,63.191082464087856
0.0000067031249999999995,63.202754482124064
0.0000067285156249999994,63.2116056367907
0.000006753906249999999,63.21769739431172
0.000006779296874999999,63.221097901415455
0.000006804687499999999,63.22188156196394
0.000006830078124999999,63.22012860759789
0.000006855468749999999,63.21592466390222
0.000006880859374999999,63.20936031356314
0.000006906249999999999,63.20053065795309
0.000006931640624999999,63.189534878539554
0.000006957031249999999,63.17647579947145
0.000006982421874999999,63.16145945265175
0.000007007812499999999,63.144594646557344
0.000007033203124999999,63.12599254001565
0.000007058593749999999,63.1057662220963
0.000007083984374999999,63.08403029922129
0.000007109374999999999,63.060900490540064
0.000007134765624999999,63.03649323255961
0.00000716015625,63.010925293959524
0.000007185546875,62.98431340146288
0.0000072109375,62.956773877572004
0.000007236328125,62.9284222909176
0.00000726171875,62.89937311990693
0.000007287109375,62.869739430295766
0.0000073125,62.839632567244976
0.000007337890625,62.80916186236279
0.00000736328125,62.77843435616998
0.000007388671875,62.7475545363659
0.0000074140625,62.71662409221183
0.000007439453125,62.68574168528948
0.00000746484375,62.65500273683273
0.000007490234375,62.62449923177538
0.000007515625,62.594319539599574
0.000007541015625,62.56454825201672
0.00000756640625,62.53526603745905
0.000007591796875,62.50654951230885
0.0000076171875,62.47847112874294
0.000007642578125,62.451099079022555
0.00000766796875,62.42449721601346
0.000007693359375,62.3987249896767
0.00000771875,62.37383739923064
0.000007744140625,62.34988496064397
0.00000776953125,62.32691368908401
0.000007794921875,62.30496509590944
0.0000078203125,62.2840761997637
0.000007845703125,62.26427955129649
0.00000787109375,62.24560327101313
0.000007896484375,62.22807109972513
0.000007921875,62.21170246105441
0.000007947265625,62.19651253542227
0.00000797265625,62.18251234493584
0.000007998046875,62.16970884857087
0.0000080234375,62.158105047034134
0.000008048828125,62.14770009667999
0.00000807421875,62.138489431845535
0.000008099609375,62.13046489496312
0.000008125,62.12361487380434
0.000008150390625,62.117924445207834
0.00000817578125,62.11337552464311
0.000008201171875,62.10994702096423
0.0000082265625,62.107614995711664
0.000008251953125,62.1063528263263
0.00000827734375,62.10613137264653
0.000008302734375,62.1069191460692
0.000008328124999999999,62.108682480766674
0.000008353515624999999,62.11138570636302
0.000008378906249999999,62.11499132148828
0.000008404296874999999,62.119460167643325
0.000008429687499999999,62.12475160282571
0.000008455078124999999,62.130823674384054
0.000008480468749999999,62.137633290587196
0.000008505859374999999,62.145136390414834
0.000008531249999999999,62.15328811109683
0.000008556640624999999,62.16204295295009
0.000008582031249999999,62.171354941083656
0.000008607421874999999,62.18117778356721
0.000008632812499999999,62.19146502567985
0.000008658203124999999,62.20217019988126
0.000008683593749999999,62.21324697117162
0.000008708984374999999,62.22464927753049
0.000008734374999999999,62.236331465150705
0.000008759765624999999,62.24824841820805
0.000008785156249999999,62.26035568293169
0.000008810546874999999,62.27260958576665
0.000008835937499999999,62.28496734544344
0.000008861328124999999,62.297387178794644
0.000008886718749999999,62.3098284001835
0.000008912109374999999,62.322251514432345
0.000008937499999999999,62.334618303163595
0.000008962890624999999,62.34689190448822
0.000008988281249999999,62.35903688599992
0.000009013671874999999,62.37101931105498
0.000009039062499999999,62.382806798339686
0.000009064453124999999,62.39436857474728
0.000009089843749999999,62.40567552160758
0.000009115234375,62.4167002143304
0.000009140625,62.42741695554418
0.000009166015625,62.43780180182686
0.00000919140625,62.44783258414518
0.000009216796875,62.45748892213276
0.0000092421875,62.466752232353244
0.000009267578125,62.47560573070942
0.00000929296875,62.484034429170975
0.000009318359375,62.492025127007864
0.00000934375,62.49956639672554
0.000009369140625,62.50664856491068
0.00000939453125,62.51326368820352
0.000009419921875,62.519405524622975
0.0000094453125,62.5250695004772
0.000009470703125,62.530252673099326
0.00000949609375,62.53495368965301
0.000009521484375,62.539172742258195
0.000009546875,62.54291151969028
0.000009572265625,62.546173155908484
0.00000959765625,62.54896217567278
0.000009623046875,62.551284437507555
0.0000096484375,62.553147074272296
0.000009673828125,62.55455843159813
0.00000969921875,62.55552800444776
0.000009724609375,62.556066372054275
0.00000975,62.556185131491596
0.000009775390625,62.55589683012576
0.00000980078125,62.55521489719163
0.000009826171875,62.55415357473554
0.0000098515625,62.552727848158035
0.000009876953125,62.55095337658534
0.00000990234375,62.54884642329238
0.000009927734375,62.54642378639125
0.000009953125,62.543702729993655
0.000009978515625,62.540700916046625
0.00001000390625,62.537436337033014
0.000010029296875,62.53392724971972
0.0000100546875,62.53019211012727
0.000010080078125,62.52624950988601
0.00001010546875,62.522118114133924
0.000010130859375,62.51781660110172
0.00001015625,62.513363603521775
0.000010181640625,62.508777651986335
0.00001020703125,62.50407712037182
0.000010232421875,62.499280173434904
0.0000102578125,62.49440471667678
0.000010283203125,62.489468348561594
0.00001030859375,62.48448831516528
0.000010333984375,62.479481467320625
0.000010359375,62.47446422031571
0.000010384765625,62.469452516191396
0.00001041015625,62.464461788676
0.000010435546875,62.459506930784464
0.0000104609375,62.454602265100455
0.000010486328125,62.44976151675209
0.00001051171875,62.44499778908096
0.000010537109375,62.44032354199831
0.0000105625,62.43575057301228
0.000010587890625,62.43129000090296
0.00001061328125,62.42695225201421
0.000010638671875,62.42274704912486
0.0000106640625,62.41868340285356
0.000010689453125,62.414769605546326
0.000010714843749999999,62.41101322758923
0.000010740234374999999,62.407421116082766
0.000010765624999999999,62.40399939580936
0.000010791015624999999,62.400753472419886
0.000010816406249999999,62.39768803776156
0.000010841796874999999,62.394807077263685
0.000010867187499999999,62.39211387929548
0.000010892578124999999,62.38961104640591
0.000010917968749999999,62.387300508352
0.000010943359374999999,62.385183536820705
0.000010968749999999999,62.38326076174564
0.000010994140624999999,62.38153218911894
0.000011019531249999999,62.37999722019678
0.000011044921874999999,62.378654671995626
0.000011070312499999999,62.37750279897556
0.000011095703124999999,62.37653931580712
0.000011121093749999999,62.37576142111632
0.000011146484374999999,62.375165822104904
0.000011171874999999999,62.3747487599415
0.000011197265624999999,62.374506035821014
0.000011222656249999999,62.374433037590734
0.000011248046874999999,62.37452476684254
0.000011273437499999999,62.37477586637249
0.000011298828124999999,62.37518064791141
0.000011324218749999999,62.37573312003129
0.000011349609374999999,62.37642701613528
0.000011374999999999999,62.37725582244207
0.000011400390624999999,62.37821280587697
0.000011425781249999999,62.379291041786345
0.000011451171874999999,62.38048344139425
0.000011476562499999999,62.38178277892402
0.000011501953124999999,62.3831817183103
0.000011527343749999999,62.38467283943144
0.000011552734374999999,62.38624866379509
0.000011578124999999999,62.38790167961397
0.000011603515624999999,62.3896243662128
0.000011628906249999998,62.39140921771036
0.000011654296874999998,62.39324876592641
0.000011679687499999998,62.395135602464556
0.000011705078125,62.39706239992954
0.00001173046875,62.39902193223789
0.000011755859375,62.40100709398767
0.00001178125,62.403010918855784
0.000011806640625,62.40502659699544
0.00001183203125,62.4070474914106
0.000011857421875,62.409067153287786
0.0000118828125,62.41107933626985
0.000011908203125,62.413078009659706
0.00001193359375,62.41505737054619
0.000011958984375,62.41701185484707
0.000011984375,62.41893614726862
0.000012009765625,62.420825190184104
0.00001203515625,62.4226741914364
0.000012060546875,62.42447863107442
0.0000120859375,62.42623426703433
0.000012111328125,62.427937139781285
0.00001213671875,62.42958357592848
0.000012162109375,62.431170190854246
0.0000121875,62.43269389033994
0.000012212890625,62.43415187125324
0.00001223828125,62.43554162130471
0.000012263671875,62.43686091790675
0.0000122890625,62.438107826165826
0.000012314453125,62.43928069604129
0.00001233984375,62.440378158705464
0.000012365234375,62.4413991221403
0.000012390625,62.4423427660084
0.000012416015625,62.443208535836916
0.00001244140625,62.44399613655248
0.000012466796875,62.44470552540862
0.0000124921875,62.445336904345716
0.000012517578125,62.44589071182472
0.00001254296875,62.44636761417646
0.000012568359375,62.44676849650835
0.00001259375,62.447094453210504
0.000012619140625,62.44734677810272
0.00001264453125,62.44752695426491
0.000012669921875,62.44763664359139
0.0000126953125,62.44767767611085
0.000012720703125,62.44765203911193
0.00001274609375,62.447561866114604
0.000012771484375,62.44740942572608
0.000012796875,62.44719711041989
0.000012822265625,62.44692742527505
0.00001284765625,62.44660297671194
0.000012873046875,62.44622646125929
0.0000128984375,62.44580065438786
0.000012923828125,62.44532839944134
0.00001294921875,62.444812596698
0.000012974609375,62.44425619259148
