Frequency,Nominal,Min,Max
30000,0.0000022826966207262285,0.000002423461050493627,0.0000021453067453695146
30698.789768422623,0.000002282790216087359,0.000002423573919640938,0.0000021453840359694835
31413.856441526983,0.0000022828882618041314,0.0000024236921616477723,0.0000021454649978456375
32145.579157128188,0.0000022829909714448058,0.0000024238160349434625,0.0000021455498068086637
32894.345884295544,0.0000022830985690173222,0.0000024239458106476682,0.0000021456386472272225
33660.55362905889,0.0000022832112894981775,0.0000024240817732189335,0.0000021457317124580194
34444.608644906475,0.0000022833293793899276,0.000002424224221138841,0.000002145829205298799
35246.92664818588,0.0000022834530973089953,0.000002424373467633986,0.0000021459313384656115
36067.93303852238,0.0000022835827146056406,0.0000024245298414381015,0.0000021460383350957784
36908.06312437144,0.000002283718516018049,0.000002424693687596846,0.0000021461504292781092
37767.762353825005,0.0000022838608003626575,0.000002424865368317985,0.000002146267866612002
38647.486550794005,0.0000022840098812629756,0.000002425045263869848,0.0000021463909047971685
39547.7021566922,0.0000022841660879193103,0.000002425233773531195,0.0000021465198142559113
40468.88647774959,0.0000022843297659220256,0.0000024254313165958434,0.000002146654878789902
41411.527938086525,0.0000022845012781111096,0.000002425638333435694,0.000002146796396273684
42376.12633868261,0.0000022846810054850576,0.000002425855286626036,0.0000021469446793871687
43363.19312237781,0.0000022848693481623276,0.000002426082662137355,0.0000021471000563896347
44373.251645046206,0.0000022850667263988273,0.0000024263209705981874,0.0000021472628719379084
45406.83745308623,0.000002285273581665221,0.0000024265707486339237,0.000002147433487951598
46464.49856737442,0.0000022854903777880893,0.0000024268325602869076,0.0000021476122845284614
47546.795773833386,0.000002285717602159346,0.0000024271069985235606,0.000002147799660913272
48654.30292076788,0.0000022859557670186262,0.0000024273946868347885,0.0000021479960365237684
49787.6072231268,0.0000022862054108138214,0.0000024276962809364586,0.0000021482018520375676
50947.309573852304,0.000002286467099645267,0.0000024280124705772995,0.000002148417570544255
52134.02486248124,0.000002286741428799642,0.0000024283439814622363,0.000002148643678767175
53348.38230116766,0.0000022870290243801362,0.0000024286915772999085,0.0000021488806883598472
54591.025758299475,0.0000022873305450399726,0.000002429056061983836,0.000002149129137282346
55862.61409988599,0.000002287646683827048,0.0000024294382819176677,0.0000021493895912633995
57163.821538897384,0.000002287978170148107,0.0000024298391284958227,0.000002149662645354503
58495.337992741326,0.0000022883257718616766,0.000002430259540751945,0.000002149948925582868
59857.869449066355,0.000002288690297509769,0.0000024307005081887838,0.0000021502490907106274
61252.13834008585,0.000002289072598699348,0.0000024311630738043924,0.0000021505638341084017
62678.88392562115,0.000002289473572645579,0.0000024316483373310442,0.0000021508938857520316
64138.862685066924,0.0000022898941648900117,0.0000024321574587048973,0.000002151240014352152
65632.84871848654,0.000002290335372208161,0.000002432691661786211,0.0000021516030296271184
67161.63415705014,0.0000022907982457223476,0.000002433252238352053,0.0000021519837847308352
68726.02958303315,0.0000022912838942372702,0.0000024338405523856342,0.0000021523831788481583
70326.86445959761,0.0000022917934878175587,0.00000243445804468904,0.000002152802159971731
71964.98757058465,0.000002292328261628525,0.0000024351062378489674,0.000002153241727875523
73641.26747055084,0.000002292889520063592,0.0000024357867415883602,0.0000021537029373018925
75356.59294528732,0.0000022934786411843454,0.0000024365012585404866,0.0000021541869013806514
77111.87348306584,0.000002294097081502007,0.000002437251590486119,0.000002154694795300589
78908.03975686137,0.000002294746381132256,0.000002438039645099224,0.0000021552278602560402
80746.04411780738,0.0000022954281693589426,0.000002438867443251828,0.0000021557874076934853
82626.8611001449,0.000002296144170646251,0.0000024397371269347905,0.000002156374823885926
84551.48793793352,0.0000022968962111434627,0.000002440650967858131,0.000002156991574865807
86520.94509379807,0.0000022976862257316916,0.0000024416113768023314,0.000002157639211750745
88536.27679999146,0.0000022985162656678305,0.0000024426209138011196,0.0000021583193765002324
90598.55161206037,0.000002299388506887732,0.0000024436822992464182,0.0000021590338081458843
92708.8629754076,0.0000023003052590383273,0.000002444798426018029,0.0000021597843495429154
94868.32980505125,0.0000023012689753171763,0.00000244597237275416,0.000002160572954696175
97078.09707888834,0.000002302282263208051,0.0000024472074183945755,0.0000021614016967206683
99339.33644477719,0.0000023033478962127447,0.0000024485070581461732,0.0000021622727765039282
101653.24684176061,0.000002304468826692634,0.000002449875021041719,0.0000021631885321461553
104021.05513575934,0.0000023056481999489162,0.0000024513152892866313,0.0000021641514492638477
106444.01677007247,0.000002306889369688192,0.000002452832119616756,0.0000021651641722539067
108923.41643103023,0.000002308195915040648,0.0000024544300669226473,0.000002166229516628181
111460.56872915158,0.000002309571659321907,0.00000245611401043371,0.000002167350482543369
114056.81889616817,0.000002311020690757239,0.000002457889182799538,0.0000021685302696685026
116713.543498284,0.00000231254738541895,0.0000024597612024569533,0.0000021697722935522584
119432.15116604898,0.0000023141564326650684,0.000002461736109730704,0.000002171080203675529
122214.0833412336,0.0000023158528634108283,0.000002463820407184736,0.000002172457903401655
125060.8150411004,0.0000023176420816148787,0.0000024660211048209787,0.0000021739095720679795
127973.85564047757,0.000002319529899420745,0.0000024683457708148617,0.000002175439689498773
130954.74967204955,0.000002321522576462034,0.0000024708025885830795,0.000002177053063261873
134005.0776452887,0.000002323626863918498,0.000002473400421100462,0.0000021787548590405263
137126.45688446227,0.000002325850054000819,0.0000024761488835205715,0.0000021805506345490376
140320.5423861592,0.000002328200035646023,0.0000024790584253088655,0.0000021824463774869445
143589.02769679125,0.000002330685357324057,0.0000024821404232673902,0.0000021844485481030332
146933.6458105336,0.000002333315297989964,0.0000024854072870132347,0.0000021865641270285416
150356.17008818142,0.0000023360999473651486,0.0000024888725786635413,0.000002188800669139858
153858.41519740917,0.000002339050296894274,0.000002492551148667354,0.000002191166364325686
157442.2380749315,0.000002342178342897615,0.0000024964592898909747,0.0000021936701061626067
161109.5389110755,0.000002345497203615452,0.0000025006149121801496,0.0000021963215696458637
164862.26215728704,0.0000023490212520089988,0.0000025050377396441647,0.000002199131299277161
168702.39755710438,0.000002352766266321259,0.0000025097495327648974,0.0000022021108089743127
172631.98120114673,0.0000023567496004789117,0.0000025147743370240816,0.00000220527269543071
176653.09660667632,0.000002360990376383159,0.000002520138758910745,0.000002208630766702686
180767.87582230693,0.0000023655096999177066,0.0000025258722686920268,0.000002212200187917928
184978.50055844424,0.0000023703309019829544,0.0000025320075268777756,0.0000022159976460439205
189287.20334405755,0.0000023754798048802633,0.000002538580727415151,0.0000022200415355792807
193696.26871039622,0.0000023809850126764295,0.000002545631944655218,0.000002224352166752948
198208.03440227837,0.0000023868782214265498,0.00000255320546212648,0.0000022289519972183257
202824.89261759407,0.0000023931945408272292,0.000002561350047894991,0.0000022338658871373938
207549.29127568047,0.0000023999728123165366,0.0000025701191221665215,0.0000022391213757114336
212383.7353152409,0.0000024072558988789522,0.0000025795707357686884,0.0000022447489742683746
217330.7880224965,0.0000024150909075772764,0.0000025897672409032932,0.0000022507824664505307
222393.07239027473,0.000002423529285475945,0.000002600774485772883,0.000002257259199149117
227573.27250875457,0.0000024326267011433976,0.0000026126603009025805,0.0000022642203376341624
232874.13498860694,0.000002442442585128847,0.0000026254919682729858,0.000002271711043547442
238298.47041728385,0.0000024530391517618815,0.0000026393322814265624,0.0000022797805134341053
243849.15484922915,0.000002464479660656368,0.0000026542337327892114,0.0000022884817863551046
249529.13133080065,0.0000024768256020000687,0.0000026702303385461232,0.0000022978711898234618
255341.41146071226,0.0000024901324143710578,0.000002687326692073434,0.0000023080072422723787
261289.0769868235,0.0000025044432888052213,0.000002705484114067404,0.0000023189487675371747
267375.2814401229,0.000002519780618625857,0.0000027246043492826076,0.0000023307519062608332
273603.25180677214,0.0000025361347872829287,0.0000027445122289255703,0.000002343465642047181
279976.2902390965,0.0000025534503377439054,0.000002764940038801685,0.000002357125420897324
286497.77580642997,0.00000257161023449071,0.0000027855177203652145,0.0000023717444749704993
293171.1662867424,0.000002590419960752401,0.0000028057738535397025,0.000002387302634734284
299999.9999999991,0.0000026095944850606613,0.0000028251517532934286,0.0000024037328166438378
306987.89768422535,0.000002628752305082938,0.0000028430422945198458,0.000002420906090885166
314138.56441526895,0.0000026474211424965715,0.0000028588305121025416,0.000002438617280481767
321455.791571281,0.0000026650586208658374,0.0000028719481780787237,0.0000024565742604421623
328943.45884295454,0.000002681088031334036,0.0000028819217859435075,0.0000024743950776650935
336605.53629058803,0.0000026949447447196387,0.0000028884063313069003,0.000002491616997765344
344446.0864490638,0.000002706124786397129,0.0000028911996517754456,0.000002507719912672511
352469.2664818578,0.0000027142256655183994,0.000002890237724760429,0.0000025221630858932
360679.3303852228,0.000002718971703756674,0.000002885575723653134,0.0000025344299147204656
369080.6312437134,0.000002720220849886925,0.000002877361459571578,0.0000025440721350237624
377677.62353824906,0.000002717955009710002,0.00000286580728073143,0.0000025507444778613748
386474.865507939,0.0000027122592235133298,0.0000028511646394691665,0.0000025542236179894696
395477.0215669209,0.0000027032958662153345,0.000002833703466437722,0.000002554409966267031
404688.8647774948,0.000002691278984738647,0.0000028136968682684945,0.0000025513152483366294
414115.2793808641,0.0000026764519990676603,0.000002791410678602092,0.0000025450412658219085
423761.2633868249,0.0000026590701746652585,0.0000027670969512673763,0.0000025357554541922624
433631.93122377683,0.0000026393879695118687,0.0000027409904028152165,0.000002523667557971954
443732.51645046077,0.0000026176506334727104,0.0000027133069188625284,0.0000025090099410495853
454068.3745308609,0.000002594089161035788,0.0000026842434168695488,0.0000024920224642573504
464644.98567374283,0.0000025689176967157986,0.0000026539785404983235,0.0000024729417979013904
475467.95773833245,0.0000025423326230028084,0.000002622673817448283,0.0000024519944883448156
486543.02920767735,0.00000251451273181344,0.0000025904750348608733,0.0000024293929230865497
497876.0722312665,0.0000024856200433801835,0.0000025575136757814343,0.000002405333380282238
509473.09573852154,0.0000024558009714403136,0.0000025239083225549654,0.0000023799954861895618
521340.24862481083,0.0000024251876364196423,0.000002489765974899965,0.0000023535425640828794
533483.8230116749,0.0000023938992023584338,0.0000024551832574852927,0.0000023261225039248766
545910.257582993,0.0000023620431643746027,0.000002420247508669085,0.000002297868899801114
558626.1409988581,0.000002329716547348056,0.000002385037752015037,0.000002268902290425089
571638.215388972,0.0000022970069981919105,0.000002349625557673342,0.0000022393314008786653
584953.3799274113,0.0000022639937673817715,0.0000023140758033481183,0.0000022092543266803075
598578.6944906615,0.0000022307485831440717,0.0000022784473454740875,0.000002178759629528573
612521.3834008563,0.000002197336425828224,0.000002242793611115393,0.0000021479273319829097
626788.8392562092,0.000002163816211849575,0.0000022071631204412778,0.000002116829809215468
641388.626850667,0.000002130241397086372,0.0000021715999487148064,0.000002085532582181857
656328.487184863,0.000002096660509326889,0.00000213614413572569,0.0000020540950197809027
671616.341570499,0.000002063117618662868,0.000002100832049606405,0.0000020225709589332497
687260.295830329,0.0000020296527538415152,0.0000020656967110455805,0.0000019910092517549222
703268.6445959735,0.0000019963022716568373,0.000002030768083078794,0.000001959454248619381
719649.8757058439,0.0000019630991855595354,0.000001996073330902083,0.0000019279462251966705
736412.6747055057,0.000001930073458832988,0.000001961637055515591,0.000001896521760718984
753565.9294528705,0.0000018972522669384287,0.000001927481504456649,0.0000018652140738594173
771118.7348306555,0.0000018646602329792163,0.0000018936267624139472,0.0000018340533217868681
789080.3975686108,0.0000018323196396685966,0.0000018600909241170325,0.0000018030668672060619
807460.4411780708,0.0000018002506207002038,0.0000018268902515587389,0.0000017722795175202062
826268.6110014459,0.0000017684713340068797,0.0000017940393173231497,0.000001741713739666466
845514.879379332,0.0000017369981190419846,0.000001761551135550533,0.0000017113898536669488
865209.4509379774,0.000001705845639919559,0.0000017294372818664712,0.0000016813262075031287
885362.7679999112,0.0000016750270159974297,0.0000016977080034291128,0.000001651539335551021
905985.5161206003,0.0000016445539412737327,0.0000016663723201012929,0.0000016220441024997666
927088.6297540724,0.0000016144367937861572,0.0000016354381176288105,0.000001592853834409441
948683.298050509,0.0000015846847360494027,0.0000016049122335990193,0.0000015639804383378975
970780.9707888798,0.0000015553058074354401,0.00000157480053686209,0.00000153543451177485
993393.3644477681,0.000001526307009289489,0.0000015451080010184003,0.0000015072254429588433
1016532.4684176022,0.0000014976943834791048,0.000001515838772507491,0.0000014793615030145997
1040210.5513575893,0.0000014694730849918134,0.0000014869962337751725,0.0000014518499307305404
1064440.1677007207,0.000001441647449126187,0.0000014585830619442818,0.0000014246970106957813
1089234.1643102982,0.0000014142210537603637,0.0000014306012833701013,0.0000013979081454298489
1114605.6872915116,0.0000013871967771292361,0.0000014030523244225752,0.0000013714879220644452
1140568.1889616773,0.0000013605768514957196,0.000001375937058803377,0.0000013454401740729284
1167135.4349828353,0.0000013343629130614858,0.0000013492558516758827,0.0000013197680384881192
1194321.511660485,0.0000013085560484276208,0.0000013230086008596511,0.0000012944740090013331
1222140.8334123313,0.0000012831568378849386,0.0000012971947753175635,0.0000012695599852940258
1250608.150410999,0.0000012581653957866819,0.0000012718134511429428,0.000001245027318917201
1279738.5564047706,0.0000012335814082324595,0.0000012468633452353962,0.0000012208768560020125
1309547.4967204903,0.0000012094041682711379,0.0000012223428468374872,0.0000011971089770571347
1340050.7764528815,0.0000011856326088115986,0.0000011982500470893897,0.000001173723634083926
1371264.568844617,0.0000011622653334135179,0.0000011745827667451672,0.0000011507203852187153
1403205.4238615865,0.0000011393006451153336,0.0000011513385821820632,0.0000011280984270923261
1435890.2769679066,0.000001116736573443092,0.0000011285148498229919,0.000001105856625079836
1469336.45810533,0.0000010945708997317393,0.0000011061087290821121,0.0000010839935415983427
1503561.7008818078,0.0000010728011808794385,0.0000010841172039338282,0.0000010625074625968539
1538584.1519740853,0.0000010514247716455005,0.000001062537103196616,0.0000010413964223701852
1574422.3807493083,0.0000010304388455933763,0.0000010413651196145856,0.0000010206582268177124
1611095.3891107484,0.000001009840414771771,0.0000010205978278115817,0.0000010002904752578765
1648622.6215728635,9.896263482191125e-7,0.0000010002317011846634,9.802905809002773e-7
1687023.9755710368,9.69793389369336e-7,9.802631277959523e-7,9.606557900689465e-7
1726319.81201146,9.503381724300266e-7,9.60688425313874e-7,9.41383200262832e-7
1766530.9660667558,9.312572377973523e-7,9.415038550466296e-7,9.224697771325396e-7
1807678.758223062,9.125470465658023e-7,9.227056351021234e-7,9.039123704458861e-7
1849785.0055844348,8.942039941843785e-7,9.042899526993589e-7,8.857077291087394e-7
1892872.0334405678,8.762244233045288e-7,8.862529756462942e-7,8.678525153018337e-7
1936962.6871039541,8.586046358585486e-7,8.685908629880573e-7,8.503433177887222e-7
1982080.3440227753,8.41340904400359e-7,8.512997748170303e-7,8.331766644446175e-7
2028248.9261759322,8.244294827332957e-7,8.343758812222808e-7,8.16349034050537e-7
2075492.912756796,8.078666158416651e-7,8.178153703398744e-7,7.998568673917866e-7
2123837.3531524,7.916485491341594e-7,8.016144554473333e-7,7.836965776942929e-7
2173307.8802249557,7.757715369975569e-7,7.857693810245878e-7,7.678645604265151e-7
2223930.7239027377,7.602318506482253e-7,7.702764276797685e-7,7.523572024885151e-7
2275732.725087536,7.450257852565528e-7,7.551319158107857e-7,7.371708908030824e-7
2328741.3498860593,7.301496663052301e-7,7.40332207842438e-7,7.223020203164605e-7
2382984.7041728282,7.155998551260275e-7,7.258737088436334e-7,7.077470014080028e-7
2438491.548492281,7.013727535409734e-7,7.117528652900404e-7,6.93502266698816e-7
2495291.313307996,6.874648075123424e-7,6.979661616943821e-7,6.795642772388912e-7
2553414.114607112,6.7387250968126e-7,6.845101147801967e-7,6.659295280401227e-7
2612890.769868224,6.605924006467421e-7,6.713812648264514e-7,6.525945529087119e-7
2673752.814401218,6.476210688054285e-7,6.585761637619076e-7,6.395559285144332e-7
2736032.51806771,6.349551485371049e-7,6.460913595427885e-7,6.268102776158262e-7
2799762.9023909536,6.225913164825436e-7,6.339233763096944e-7,6.143542713392401e-7
2864977.7580642877,6.105262856188509e-7,6.220686897963989e-7,6.021846303855561e-7
2931711.6628674115,5.987567967945074e-7,6.105236974628998e-7,5.902981250111261e-7
2999999.999999979,5.872796073435605e-7,5.992846828593102e-7,5.786915735989204e-7
3069878.976842241,5.76091476358916e-7,5.883477738100373e-7,5.673618396021801e-7
3141385.6441526767,5.651891461726884e-7,5.777088941559784e-7,5.563058266064351e-7
3214557.9157127966,5.545693195730965e-7,5.673637090247955e-7,5.455204712174358e-7
3289434.5884295315,5.442286322905233e-7,5.573075639345337e-7,5.350027334438171e-7
3366055.362905866,5.341636203204692e-7,5.475354184901885e-7,5.247495842064975e-7
3444460.864490623,5.243706817310919e-7,5.380417760156801e-7,5.147579895753495e-7
3524692.6648185626,5.148460327429374e-7,5.288206111718646e-7,5.050248913124228e-7
3606793.303852212,5.055856580849168e-7,5.198652984219404e-7,4.955471832965774e-7
3690806.312437117,4.965852559401318e-7,5.11168545069357e-7,4.863216834254201e-7
3776776.2353824736,4.878401782116235e-7,5.027223334282461e-7,4.773451006477819e-7
3864748.655079373,4.793453673688145e-7,4.945178773767039e-7,4.6861399688656324e-7
3954770.215669192,4.7109529177571436e-7,4.865455989453232e-7,4.6012474378221885e-7
4046888.6477749306,4.6308388212926145e-7,4.787951305514975e-7,4.518734744365133e-7
4141152.793808623,4.5530447240350614e-7,4.7125534786355544e-7,4.4385603067806047e-7
4237612.6338682305,4.4774974942675925e-7,4.639144369776147e-7,4.360679068144952e-7
4336319.312237749,4.4041171580873757e-7,4.5675999761155806e-7,4.285041913809346e-7
4437325.164504588,4.3328167125400665e-7,4.497791814770329e-7,4.211595090263777e-7
4540683.745308589,4.263502172091587e-7,4.429588621144433e-7,4.1402796536454894e-7
4646449.856737408,4.1960728917322607e-7,4.3628582959568525e-7,4.0710309829420435e-7
4754679.577383303,4.130422197811345e-7,4.2974700098433875e-7,4.003778398799046e-7
4865430.292076752,4.066438339563893e-7,4.23329635632804e-7,3.9384449326776864e-7
