Frequency,Nominal,Min,Max
30000,2.942560194598608e-7,2.91518523932289e-7,2.9805032171633253e-7
30698.789768422623,2.94221953866738e-7,2.914728390406019e-7,2.980280072940268e-7
31413.856441526983,2.9418628063793606e-7,2.914250119937626e-7,2.980046278794935e-7
32145.579157128188,2.94148923825985e-7,2.913749428944691e-7,2.9798013203788643e-7
32894.345884295544,2.9410980389062725e-7,2.913225272406226e-7,2.97954465796853e-7
33660.55362905889,2.940688375287827e-7,2.912676557184124e-7,2.979275725169493e-7
34444.608644906475,2.9402593749651724e-7,2.9121021398664304e-7,2.978993927551206e-7
35246.92664818588,2.9398101242265134e-7,2.911500824519935e-7,2.9786986412086243e-7
36067.93303852238,2.939339666136291e-7,2.910871360348844e-7,2.9783892112465247e-7
36908.06312437144,2.938846998492617e-7,2.9102124392563504e-7,2.978064950182259e-7
37767.762353825005,2.938331071689337e-7,2.9095226933057946e-7,2.977725136262411e-7
38647.486550794005,2.937790786478558e-7,2.9088006920781795e-7,2.977369011688562e-7
39547.7021566922,2.9372249916293015e-7,2.9080449399227033e-7,2.976995780747215e-7
40468.88647774959,2.936632481477767e-7,2.907253873097065e-7,2.9766046078385547e-7
41411.527938086525,2.9360119933646504e-7,2.9064258567942357e-7,2.9761946153985877e-7
42376.12633868261,2.93536220495472e-7,2.9055591820525095e-7,2.9757648817088325e-7
43363.19312237781,2.934681731433833e-7,2.9046520625456327e-7,2.9753144385875624e-7
44373.251645046206,2.9339691225784036e-7,2.903702631249976e-7,2.9748422689562555e-7
45406.83745308623,2.933222859692258e-7,2.902708936985748e-7,2.974347304274712e-7
46464.49856737442,2.9324413524057516e-7,2.9016689408294794e-7,2.973828421838003e-7
47546.795773833386,2.9316229353319005e-7,2.900580512395099e-7,2.973284441928156e-7
48654.30292076788,2.930765864574382e-7,2.8994414259812284e-7,2.9727141248132997e-7
49787.6072231268,2.9298683140820664e-7,2.898249356582547e-7,2.9721161675866945e-7
50947.309573852304,2.928928371844941e-7,2.897001875763391e-7,2.9714892008379595e-7
52134.02486248124,2.927944035926306e-7,2.8956964473921645e-7,2.970831785148605e-7
53348.38230116766,2.92691321032619e-7,2.894330423235554e-7,2.970142407403827e-7
54591.025758299475,2.925833700671231e-7,2.892901038412044e-7,2.969419476912549e-7
55862.61409988599,2.9247032097264245e-7,2.8914054067048704e-7,2.968661321327574e-7
57163.821538897384,2.923519332724532e-7,2.8898405157351745e-7,2.967866182357851e-7
58495.337992741326,2.922279552509344e-7,2.8882032219969407e-7,2.967032211264991e-7
59857.869449066355,2.92098123448954e-7,2.8864902457561917e-7,2.9661574641364435e-7
61252.13834008585,2.9196216214005355e-7,2.884698165817928e-7,2.965239896928121e-7
62678.88392562115,2.9181978278724966e-7,2.882823414165434e-7,2.9642773602698097e-7
64138.862685066924,2.9167068348036864e-7,2.8808622704779363e-7,2.963267594027462e-7
65632.84871848654,2.915145483539411e-7,2.878810856533998e-7,2.9622082216173073e-7
67161.63415705014,2.9135104698582274e-7,2.8766651305097644e-7,2.961096744067986e-7
68726.02958303315,2.9117983377686073e-7,2.874420881182995e-7,2.959930533828256e-7
70326.86445959761,2.910005473121149e-7,2.8720737220559103e-7,2.95870682831964e-7
71964.98757058465,2.9081280970435715e-7,2.869619085412275e-7,2.9574227232354383e-7
73641.26747055084,2.9061622592081736e-7,2.8670522163266604e-7,2.9560751655900874e-7
75356.59294528732,2.90410383094437e-7,2.8643681666468465e-7,2.9546609465257605e-7
77111.87348306584,2.901948498212167e-7,2.86156178897348e-7,2.953176693886652e-7
78908.03975686137,2.8996917544561717e-7,2.8586277306647715e-7,2.951618864575363e-7
80746.04411780738,2.8973288933640696e-7,2.855560427897982e-7,2.949983736710516e-7
82626.8611001449,2.8948550015582655e-7,2.852089643725298e-7,2.948267401610065e-7
84551.48793793352,2.892264951254895e-7,2.847432116320244e-7,2.946465755630854e-7
86520.94509379807,2.889553392930544e-7,2.842575809843145e-7,2.945580727904057e-7
88536.27679999146,2.886714748043839e-7,2.837513213443398e-7,2.9449942913791416e-7
90598.55161206037,2.8837432018667847e-7,2.8322366217805534e-7,2.9443664255695294e-7
92708.8629754076,2.8806326964891083e-7,2.8267381385929903e-7,2.943694036181486e-7
94868.32980505125,2.877376924068208e-7,2.821009681322675e-7,2.942973800006145e-7
97078.09707888834,2.873969320407482e-7,2.815042986890772e-7,2.942202149880055e-7
99339.33644477719,2.870403058956727e-7,2.8088296187233764e-7,2.9413752590157666e-7
101653.24684176061,2.866671045340131e-7,2.8023609751309773e-7,2.9404890247330703e-7
104021.05513575934,2.8627659125297064e-7,2.7956282991492723e-7,2.939539051630786e-7
106444.01677007247,2.858680016794869e-7,2.7886226899527585e-7,2.938520634247867e-7
108923.41643103023,2.854405434571787e-7,2.7813351159556575e-7,2.937428739270413e-7
111460.56872915158,2.84993396040859e-7,2.773756429717305e-7,2.936257987346422e-7
114056.81889616817,2.8452571061540366e-7,2.765877384770793e-7,2.935002634571131e-7
116713.543498284,2.840366101566363e-7,2.7576886544939455e-7,2.9336565536995985e-7
119432.15116604898,2.8352518965247675e-7,2.749180853140449e-7,2.9322132151263286e-7
122214.0833412336,2.8299051650259387e-7,2.74034455914525e-7,2.930665667638471e-7
125060.8150411004,2.8243163111395755e-7,2.73117034081143e-7,2.9291189064944623e-7
127973.85564047757,2.8184754770760375e-7,2.7216487844744535e-7,2.9276141796677946e-7
130954.74967204955,2.8123725534807526e-7,2.71177052522218e-7,2.9259922412992755e-7
134005.0776452887,2.805997192006578e-7,2.700916823515289e-7,2.9242445395843374e-7
137126.45688446227,2.7993388201169874e-7,2.689496193165133e-7,2.922391136251198e-7
140320.5423861592,2.7923866579263086e-7,2.6776488200869944e-7,2.921355753902201e-7
143589.02769679125,2.78512973667002e-7,2.6653638262376e-7,2.92023874753974e-7
146933.6458105336,2.7775569180937503e-7,2.6526305312194134e-7,2.9190347886198417e-7
150356.17008818142,2.769656913620815e-7,2.6394385087776914e-7,2.9177382104569575e-7
153858.41519740917,2.7614183015604444e-7,2.6257776473219826e-7,2.91634293680087e-7
157442.2380749315,2.752829539792527e-7,2.6116382139889723e-7,2.914842378001817e-7
161109.5389110755,2.7438789702301135e-7,2.5970109213985485e-7,2.9132292816543144e-7
164862.26215728704,2.734554809812516e-7,2.5818869957423905e-7,2.911495519879712e-7
168702.39755710438,2.724845120680181e-7,2.566258244133273e-7,2.9096317890814854e-7
172631.98120114673,2.714737749344797e-7,2.550117118166531e-7,2.9076271895868735e-7
176653.09660667632,2.7042202208577525e-7,2.533456769315559e-7,2.9054686414438764e-7
180767.87582230693,2.693279568893451e-7,2.516271089987991e-7,2.903140078001435e-7
184978.50055844424,2.6819020759197145e-7,2.4985547316643756e-7,2.9006213398535205e-7
189287.20334405755,2.670072888757592e-7,2.480303088344262e-7,2.89788666727684e-7
193696.26871039622,2.657775463285196e-7,2.4615122293094263e-7,2.894902658482721e-7
198208.03440227837,2.644990777202626e-7,2.442178759705101e-7,2.8916255232109253e-7
202824.89261759407,2.6316962310440084e-7,2.4222995803139795e-7,2.8879974166813e-7
207549.29127568047,2.6178641345529585e-7,2.401871508794478e-7,2.883941589865146e-7
212383.7353152409,2.6034596481373486e-7,2.380890713209878e-7,2.879356044303896e-7
217330.7880224965,2.588438018387744e-7,2.359351894594345e-7,2.8741053457448197e-7
222393.07239027473,2.572740915513497e-7,2.3372471385035792e-7,2.868010254231196e-7
227573.27250875457,2.5562916554402995e-7,2.3145643363800577e-7,2.8608349100041154e-7
232874.13498860694,2.5389890825765924e-7,2.2912850574689797e-7,2.852271541027338e-7
238298.47041728385,2.520699922758006e-7,2.267381734025755e-7,2.8419231279197096e-7
243849.15484922915,2.5012495256867075e-7,2.2428140127234745e-7,2.8292853064365427e-7
249529.13133080065,2.480411157521026e-7,2.2175241344593543e-7,2.8137301474560103e-7
255341.41146071226,2.4578944539224193e-7,2.1914312516819353e-7,2.794496412767012e-7
261289.0769868235,2.4333343933457196e-7,2.1644247061691624e-7,2.770693320071005e-7
267375.2814401229,2.406283277030258e-7,2.1363565135962965e-7,2.7443387163568866e-7
273603.25180677214,2.3762096987708094e-7,2.1070336898733412e-7,2.7143575907714937e-7
279976.2902390965,2.3425101312553258e-7,2.0762116668852979e-7,2.677719234423708e-7
286497.77580642997,2.304539924342343e-7,2.0434321140429652e-7,2.6333738513799196e-7
293171.1662867424,2.2616700357822588e-7,2.006412744950991e-7,2.580465916677941e-7
299999.9999999991,2.2133721076164418e-7,1.9633872508932323e-7,2.526858178120065e-7
306987.89768422535,2.1593263022723778e-7,1.9141121384259034e-7,2.469263783386179e-7
314138.56441526895,2.099534223255503e-7,1.8612265151347077e-7,2.4028601701159683e-7
321455.791571281,2.0344073606932768e-7,1.8050700090790446e-7,2.3279644650823427e-7
328943.45884295454,1.964797238145132e-7,1.7462456769764824e-7,2.245612456791194e-7
336605.53629058803,1.8919436714314508e-7,1.6855847629896372e-7,2.1575187879839843e-7
344446.0864490638,1.817342238516355e-7,1.6234903929037015e-7,2.0658871193682e-7
352469.2664818578,1.7425609571344523e-7,1.5562433837135044e-7,1.9731137955565963e-7
360679.3303852228,1.6690539734717634e-7,1.4923298708144217e-7,1.8823949380799819e-7
369080.6312437134,1.5980173721552935e-7,1.4321389366626813e-7,1.7977370587849077e-7
377677.62353824906,1.530312315042864e-7,1.375793592824927e-7,1.7203301194309676e-7
386474.865507939,1.4664559441369726e-7,1.322764790821589e-7,1.645516870563999e-7
395477.0215669209,1.4066626045254724e-7,1.2733798542725332e-7,1.573842537038471e-7
404688.8647774948,1.3509115925584802e-7,1.2274077656723807e-7,1.5062003667958852e-7
414115.2793808641,1.2990205843108254e-7,1.1845125433928707e-7,1.4428734259864913e-7
423761.2633868249,1.2507111404557594e-7,1.1443633377240029e-7,1.3837119620370852e-7
433631.93122377683,1.2056600040482597e-7,1.106651496082893e-7,1.3286155188787378e-7
443732.51645046077,1.1635352081714854e-7,1.0710991402104401e-7,1.2773491506349238e-7
454068.3745308609,1.124018944583349e-7,1.0374620595433442e-7,1.2296044603250408e-7
464644.98567374283,1.086820246808933e-7,1.0055291114704045e-7,1.1850452815788244e-7
475467.95773833245,1.0516805423069329e-7,9.751196938995392e-8,1.1433384172216224e-7
486543.02920767735,1.0183746208658038e-7,9.460803311384107e-8,1.1041720603598153e-7
497876.0722312665,9.867089226643772e-8,9.182810194783031e-8,1.0672651345478166e-7
509473.09573852154,9.565184579903431e-8,8.91611703263706e-8,1.0323705224750423e-7
521340.24862481083,9.27663201500224e-8,8.65979070911246e-8,9.993644768898566e-8
533483.8230116749,9.000244642132845e-8,8.41303747539593e-8,9.681978822979473e-8
545910.257582993,8.735015164804669e-8,8.175178949156921e-8,9.384690697044795e-8
558626.1409988581,8.480085882866592e-8,7.945631939526203e-8,9.100453668191269e-8
571638.215388972,8.234722847906439e-8,7.720241980635122e-8,8.828142607371048e-8
584953.3799274113,7.998294054395273e-8,7.502227470401777e-8,8.566801077408454e-8
598578.6944906615,7.770251300960138e-8,7.291547427678805e-8,8.31635949321398e-8
612521.3834008563,7.550115256316205e-8,7.087846370668703e-8,8.076313435634768e-8
626788.8392562092,7.337463249673508e-8,6.890803740392074e-8,7.844947968688814e-8
641388.626850667,7.131919335510029e-8,6.700128084799608e-8,7.62173931240101e-8
656328.487184863,6.933146233032376e-8,6.515552353426436e-8,7.40622867030769e-8
671616.341570499,6.740838797301063e-8,6.336830088125159e-8,7.198010713330582e-8
687260.295830329,6.554718734222629e-8,6.163732335677084e-8,6.99672422114472e-8
703268.6445959735,6.374530321672723e-8,5.996045141573659e-8,6.802044496459603e-8
719649.8757058439,6.200036942471595e-8,5.83356751171097e-8,6.61367722462469e-8
736412.6747055057,6.031018271611528e-8,5.676109751009509e-8,6.431353505130263e-8
753565.9294528705,5.8672679905086665e-8,5.523492105912003e-8,6.254825829957616e-8
771118.7348306555,5.7085919258732795e-8,5.3755436521003786e-8,6.083864825342969e-8
789080.3975686108,5.554806530894652e-8,5.232101380282933e-8,5.91825660841958e-8
807460.4411780708,5.405737642617433e-8,5.093009442100779e-8,5.757800638977665e-8
826268.6110014459,5.26121946236093e-8,4.958118525554582e-8,5.602307970026256e-8
845514.879379332,5.121093716415968e-8,4.8272853352357515e-8,5.4515998197879327e-8
865209.4509379774,4.98520896255768e-8,4.7003721573636224e-8,5.305506402985761e-8
885362.7679999112,4.853420014557255e-8,4.577246493421456e-8,5.163865971482264e-8
905985.5161206003,4.725587462200263e-8,4.457780749240627e-8,5.026524024088033e-8
927088.6297540724,4.6015772685947073e-8,4.341851968853323e-8,4.8933326531600747e-8
948683.298050509,4.4812604299941724e-8,4.2293416044382495e-8,4.7641500018532045e-8
970780.9707888798,4.3645126861406843e-8,4.120135315313785e-8,4.638839810891604e-8
993393.3644477681,4.2512142713824426e-8,4.0141227902623956e-8,4.517271037746607e-8
1016532.4684176022,4.141249698649595e-8,3.9111975885566734e-8,4.399317534343602e-8
1040210.5513575893,4.034507569859899e-8,3.811256995946821e-8,4.2848577720349253e-8
1064440.1677007207,3.9308804075415766e-8,3.714201892598734e-8,4.173774604693073e-8
1089234.1643102982,3.830264503454975e-8,3.619936630569815e-8,4.065955062498862e-8
1114605.6872915116,3.732559780809161e-8,3.5283689188999133e-8,3.961290170400141e-8
1140568.1889616773,3.6376696673375316e-8,3.439409714796419e-8,3.859674786360576e-8
1167135.4349828353,3.54550097704432e-8,3.3529731197208414e-8,3.7610074554536696e-8
1194321.511660485,3.4559637988826984e-8,3.268976279451747e-8,3.665190276623281e-8
1222140.8334123313,3.3689713909927946e-8,3.187339287416298e-8,3.572128779560027e-8
1250608.150410999,3.2844400794278804e-8,3.107985090758124e-8,3.481731809657434e-8
1279738.5564047706,3.20228916054136e-8,3.03083939875027e-8,3.3939114194332374e-8
1309547.4967204903,3.122440806405059e-8,2.955830593274078e-8,3.30858276514574e-8
1340050.7764528815,3.044819972788952e-8,2.8828896411734295e-8,3.225664007616114e-8
1371264.568844617,2.969354309360129e-8,2.8119500083625355e-8,3.145076216495955e-8
1403205.4238615865,2.8959740718601622e-8,2.7429475756182244e-8,3.0667432774041006e-8
1435890.2769679066,2.824612036099502e-8,2.675820556027183e-8,2.99059180150526e-8
1469336.45810533,2.755203413669106e-8,2.610509414087318e-8,2.916551037221681e-8
1503561.7008818078,2.687685769316238e-8,2.546956786482491e-8,2.8445527838628144e-8
1538584.1519740853,2.6219989399660736e-8,2.485107404562885e-8,2.7745313070312594e-8
1574422.3807493083,2.5580849553956683e-8,2.424908018570886e-8,2.7064232557197703e-8
1611095.3891107484,2.495887960583807e-8,2.3663073236554648e-8,2.640167581056738e-8
1648622.6215728635,2.4353541397709822e-8,2.3092558877179854e-8,2.5757054566889063e-8
1687023.9755710368,2.37643164226944e-8,2.253706081129719e-8,2.5129802008124294e-8
1726319.81201146,2.3190705100650557e-8,2.1996120083568564e-8,2.451937199878173e-8
1766530.9660667558,2.2632226072517498e-8,2.1469294415231035e-8,2.3925238340063784e-8
1807678.758223062,2.2088415513357634e-8,2.0956157559333763e-8,2.3346894041501554e-8
1849785.0055844348,2.155882646442263e-8,2.045629867575113e-8,2.2783850610483544e-8
1892872.0334405678,2.1043028184507937e-8,1.9969321726064584e-8,2.22356373600649e-8
1936962.6871039541,2.0540605520794116e-8,1.949484488833509e-8,2.1701800735407326e-8
1982080.3440227753,2.0051158299304048e-8,1.9032499991717876e-8,2.118190365914815e-8
2028248.9261759322,1.9574300735034158e-8,1.8581931970805427e-8,2.0675524895936116e-8
2075492.912756796,1.9109660861748475e-8,1.814279833952304e-8,2.0182258436305164e-8
2123837.3531524,1.8656879981357153e-8,1.77147686843442e-8,1.970171289998837e-8
2173307.8802249557,1.821561213273835e-8,1.7297524176541423e-8,1.923351095870526e-8
2223930.7239027377,1.7785523579803265e-8,1.6890757103142842e-8,1.8777288778387398e-8
2275732.725087536,1.736629231855045e-8,1.6494170416223043e-8,1.8332695480742974e-8
2328741.3498860593,1.6957607602807526e-8,1.6107477300122917e-8,1.789939262400012e-8
2382984.7041728282,1.6559169488314845e-8,1.5730400756162278e-8,1.7477053702611906e-8
2438491.548492281,1.6170688394768526e-8,1.536267320438498e-8,1.7065363665655417e-8
2495291.313307996,1.579188468540768e-8,1.5004036101855664e-8,1.6664018453610908e-8
2553414.114607112,1.5422488263703546e-8,1.465423957701194e-8,1.6272724553166302e-8
2612890.769868224,1.506223818668593e-8,1.4313042079563761e-8,1.589119856965721e-8
2673752.814401218,1.4710882294424074e-8,1.3980210045424542e-8,1.551916681672233e-8
2736032.51806771,1.4368176855166202e-8,1.3655517576153496e-8,1.515636492272851e-8
2799762.9023909536,1.4033886225631184e-8,1.3338746132387373e-8,1.4802537453499744e-8
2864977.7580642877,1.3707782525940526e-8,1.3029684240741569e-8,1.4457437550867581e-8
2931711.6628674115,1.3389645328675196e-8,1.2728127213663436e-8,1.4120826586548513e-8
2999999.999999979,1.307926136154182e-8,1.2433876881727262e-8,1.3792473830845422e-8
3069878.976842241,1.2776424223135225e-8,1.214674133786748e-8,1.3472156135665106e-8
3141385.6441526767,1.2480934111288906e-8,1.1866534693056014e-8,1.3159657631341787e-8
3214557.9157127966,1.2192597563511413e-8,1.159307684294031e-8,1.2854769436757282e-8
3289434.5884295315,1.1911227209015201e-8,1.1326193244970052e-8,1.2557289382251625e-8
3366055.362905866,1.1636641531853819e-8,1.1065714705553166e-8,1.226702174482328e-8
3444460.864490623,1.136866464469469e-8,1.0811477176794884e-8,1.1983776995124784e-8
3524692.6648185626,1.1107126072766086e-8,1.0563321562387499e-8,1.1707371555768968e-8
3606793.303852212,1.0851860547530128e-8,1.0321093532232436e-8,1.143762757047024e-8
3690806.312437117,1.0602707809646653e-8,1.0084643345391036e-8,1.1174372683557096e-8
3776776.2353824736,1.0359512420806673e-8,9.853825680974508e-9,1.0917439829403749e-8
3864748.655079373,1.0122123584028414e-8,9.62849947659877e-9,1.066666703134166e-8
3954770.215669192,9.890394972023188e-9,9.408527774043984e-9,1.0421897209625276e-8
4046888.6477749306,9.66418456325274e-9,9.19377757177324e-9,1.0182977998039743e-8
4141152.793808623,9.443354485314478e-9,8.984119683979308e-9,9.949761568752792e-9
4237612.6338682305,9.227770865304958e-9,8.779428605842044e-9,9.722104465027027e-9
4336319.312237749,9.01730368682678e-9,8.579582384693204e-9,9.499867441423251e-9
4437325.164504588,8.811826653317524e-9,8.38446249679847e-9,9.282915311139802e-9
4540683.745308589,8.611217057393678e-9,8.193953729479862e-9,9.071116800147034e-9
4646449.856737408,8.41535565591561e-9,8.007944068314208e-9,8.86434440779007e-9
4754679.577383303,8.224126550492951e-9,7.826324589155607e-9,8.662474273546968e-9
4865430.292076752,8.037417073162587e-9,7.648989354741833e-9,8.465386049642777e-9
4978760.722312642,7.855117676983667e-9,7.475835315655846e-9,8.272962779233381e-9
5094730.957385193,7.677121831306244e-9,7.306762215424638e-9,8.085090779885696e-9
5213402.486248085,7.503325921481506e-9,7.141672499548258e-9,7.901659532093667e-9
5334838.230116726,7.333629152792907e-9,6.9804712282617745e-9,7.722561572581322e-9
5459102.575829906,7.16793345839807e-9,6.823065992842736e-9,7.547692392155977e-9
5586261.409988557,7.006143411081628e-9,6.669366835285845e-9,7.376950337886154e-9
5716382.153889695,6.84816613862914e-9,6.519286171175382e-9,7.21023651938942e-9
5849533.799274088,6.6939112426414295e-9,6.3727387155941955e-9,7.047454719026053e-9
5985786.94490659,6.543290720617814e-9,6.229641411916157e-9,6.888511305804313e-9
6125213.834008537,6.396218891145347e-9,6.0899133633364245e-9,6.7333151528128154e-9
6267888.392562066,6.25261232203908e-9,5.953475767001047e-9,6.581777558004653e-9
6413886.268506642,6.112389761286458e-9,5.820251850604214e-9,6.433812168166801e-9
6563284.871848603,5.97547207065613e-9,5.690166811327851e-9,6.289334905916463e-9
6716163.415704963,5.84178216183849e-9,5.563147757004321e-9,6.14826389957437e-9
6872602.958303262,5.7112449349919875e-9,5.439123649388642e-9,6.010519415772253e-9
7032686.445959707,5.583787219575392e-9,5.318025249431947e-9,5.876023794659266e-9
