Frequency,Nominal,Min,Max
30000,35.88861469431507,35.86519227593453,35.929222468066776
30698.789768422623,35.88772670724087,35.86395023102702,35.92872548769688
31413.856441526983,35.88679661934661,35.862649537913114,35.928204692683025
32145.579157128188,35.88582242216112,35.86128742164664,35.92765892272581
32894.345884295544,35.88480201019884,35.859860975432696,35.92708695917149
33660.55362905889,35.88373317615843,35.858367154308525,35.9264875219061
34444.608644906475,35.882613605872656,35.85680276851607,35.92585926606866
35246.92664818588,35.88144087299577,35.85516447655087,35.92520077857169
36067.93303852238,35.880212433413426,35.8534487778704,35.924510574415905
36908.06312437144,35.878925619359606,35.85165200524495,35.923787092785716
37767.762353825005,35.87757763322352,35.8497703167327,35.923028692910506
38647.486550794005,35.876165541029,35.847799687259446,35.92223364967582
39547.7021566922,35.87468626556719,35.84573589978287,35.92140014896723
40468.88647774959,35.87313657916228,35.84357453601996,35.92052628272848
41411.527938086525,35.87151309604892,35.84131096671447,35.91961004371375
42376.12633868261,35.86981226433802,35.838940341420894,35.91864931991274
43363.19312237781,35.868030357546715,35.836457577779235,35.91764188862493
44373.251645046206,35.866163465665714,35.83385735025387,35.91658541015828
45406.83745308623,35.86420748573657,35.83113407830815,35.915477421124685
46464.49856737442,35.862158111908265,35.828281913984476,35.914315327303164
47546.795773833386,35.8600108249414,35.82529472885818,35.91309639603864
48654.30292076788,35.85776088112516,35.822166100331245,35.911817748141836
49787.6072231268,35.85540330057051,35.81888929723017,35.91047634925289
50947.309573852304,35.852932854839516,35.81545726466972,35.909069000628016
52134.02486248124,35.850344053868724,35.81186260814241,35.907592329305295
53348.38230116766,35.84763113214047,35.8080975767905,35.90604277760148
54591.025758299475,35.84478803405321,35.80415404581498,35.904416591887994
55862.61409988599,35.84180839843783,35.80002349797286,35.902709810589634
57163.821538897384,35.83868554216284,35.795697004110835,35.900918251344166
58495.337992741326,35.83541244276734,35.79116520268036,35.89903749725612
59857.869449066355,35.831981720054934,35.78641827817478,35.8970628821715
61252.13834008585,35.828385616577464,35.78144593842593,35.89498947489416
62678.88392562115,35.82461597693084,35.77623739069261,35.89281206225665
64138.862685066924,35.82066422577941,35.770781316469105,35.89052513095085
65632.84871848654,35.81652134451796,35.765065844936395,35.8881228480149
67161.63415705014,35.812177846473354,35.759078524973525,35.885599039862925
68726.02958303315,35.80762375053878,35.75280629564005,35.88294716973357
70326.86445959761,35.802848553124804,35.74623545503437,35.88016031342167
71964.98757058465,35.797841198301334,35.739351627424924,35.87723113314377
73641.26747055084,35.79259004599304,35.732139728543814,35.87415184937448
75356.59294528732,35.78708283807871,35.72458392892315,35.87091421047364
77111.87348306584,35.78130666223127,35.71666761514532,35.86750945990728
78908.03975686137,35.77524791331988,35.708373348867326,35.8639283008447
80746.04411780738,35.768892252179036,35.699682823467995,35.86016085789238
82626.8611001449,35.7622245615302,35.690576818153595,35.856196635700115
84551.48793793352,35.755228898821436,35.68103514934335,35.85202447414744
86520.94509379807,35.74788844572612,35.671036619139834,35.84763249978701
88536.27679999146,35.7401854540166,35.66055896067189,35.8430080731868
90598.55161206037,35.73210118749815,35.64957878007709,35.838137731773145
92708.8629754076,35.723615859656185,35.638071494868555,35.83300712773252
94868.32980505125,35.71470856663128,35.62601126840516,35.827600960478975
97078.09707888834,35.70535721509435,35.61337094015516,35.82190290313675
99339.33644477719,35.69553844454515,35.60012195141037,35.81589552242208
101653.24684176061,35.68522754350138,35.586234266069475,35.80956019123228
104021.05513575934,35.67439835898145,35.57167628606577,35.802876993164425
106444.01677007247,35.663023198609274,35.55641476096286,35.795824618085554
108923.41643103023,35.651072724582875,35.54041469118231,35.7883802477594
111460.56872915158,35.63851583864687,35.52363922425654,35.780519430400346
114056.81889616817,35.6253195570895,35.50604954341584,35.772215942864904
116713.543498284,35.611448874642875,35.48760474771764,35.76344163900419
119432.15116604898,35.59686661599561,35.468261722803895,35.75418039686147
122214.0833412336,35.581533273423005,35.447975001223135,35.74439441928943
125060.8150411004,35.56540682879314,35.42669661107043,35.73404359214313
127973.85564047757,35.548442557905055,35.40395051082578,35.72309072667675
130954.74967204955,35.530592814744104,35.379816659132366,35.71149574557242
134005.0776452887,35.51180679277989,35.35450291026005,35.699215411446794
137126.45688446227,35.492030259857806,35.32794864787591,35.68620302326793
140320.5423861592,35.47120526251465,35.30008974835673,35.672408075656065
143589.02769679125,35.44926979463755,35.270858316313884,35.65777587499105
146933.6458105336,35.42615742422647,35.24018238861943,35.64224710492332
150356.17008818142,35.401796870540274,35.20798560081351,35.625757332204685
153858.41519740917,35.37611152200388,35.174186808151354,35.608236441612355
157442.2380749315,35.349018882801914,35.13869965143547,35.58960798599418
161109.5389110755,35.320429932910244,35.10143205501894,35.56978843392944
164862.26215728704,35.29024838219628,35.06228564075456,35.5486862929364
168702.39755710438,35.2583697938603,35.02115503693526,35.52620108024303
172631.98120114673,35.22468054550436,34.97792705507222,35.50222210545422
176653.09660667632,35.18905658700545,34.932479699232786,35.476627019448536
180767.87582230693,35.151361942479824,34.884680962018024,35.449280070807006
184978.50055844424,35.1114468881184,34.834387347334385,35.420029994094186
189287.20334405755,35.069145717468,34.78144204192472,35.38870743218705
193696.26871039622,35.02427397946393,34.72567263392424,35.35512176607548
198208.03440227837,34.97662504047062,34.66688824592925,35.31905718823703
202824.89261759407,34.92596577764593,34.60487591026893,35.280267807483575
207549.29127568047,34.87203115457469,34.53939596300076,35.23847151127791
212383.7353152409,34.814517358378836,34.470176167836996,35.193342232686014
217330.7880224965,34.75307308718872,34.39690419864481,35.14450016985642
222393.07239027473,34.68728846479937,34.31921800611602,35.09149938284491
227573.27250875457,34.61668092310765,34.23669346782698,35.03381204335926
232874.13498860694,34.540677232117254,34.14882856968675,34.97080843778209
238298.47041728385,34.4585906757562,34.055023192266674,34.90173162818339
243849.15484922915,34.36959218139351,33.95450999199526,34.82566547551946
249529.13133080065,34.27267403789744,33.84536114828335,34.74149455690749
255341.41146071226,34.16660473113537,33.72733038770654,34.6478544267989
261289.0769868235,34.04987347409254,33.599043446009674,34.54307078733678
267375.2814401229,33.92062335377836,33.45880951730301,34.425086619637824
273603.25180677214,33.776572876904844,33.30454804461755,34.291377446740874
279976.2902390965,33.614927379327526,33.13370514447079,34.13885701186575
286497.77580642997,33.432284659536,32.943162969736235,33.963779199652684
293171.1662867424,33.22454370383613,32.72914914540324,33.7616474094282
299999.9999999991,32.98683171250245,32.4871589394382,33.5271499235682
306987.89768422535,32.713472484081485,32.21190993443245,33.2541484440278
314138.56441526895,32.39802711445654,31.897356642931687,32.93575478369554
321455.791571281,32.03344271041378,31.53679828452716,32.56453351555946
328943.45884295454,31.612341272450628,31.108330435898814,32.14299255856406
336605.53629058803,31.127463207456522,30.61492611176243,31.666420163447743
344446.0864490638,30.572244907409335,30.052471020481377,31.118172011859357
352469.2664818578,29.9414620725818,29.41599338250831,30.49275218844457
360679.3303852228,29.23182577535503,28.693665662018137,29.786654079306793
369080.6312437134,28.44240006506577,27.875126328011174,29.021227114955927
377677.62353824906,27.57473633726036,26.980405362852235,28.180753318639702
386474.865507939,26.63268838088377,26.014234919032383,27.26325875026867
395477.0215669209,25.621956350809295,24.98229954692579,26.273731986685927
404688.8647774948,24.549471518417928,23.890530870736843,25.22121894577051
414115.2793808641,23.42275298930595,22.748287428441685,24.110604410309996
423761.2633868249,22.24934398181656,21.562907445333522,22.949547878289017
433631.93122377683,21.03638869221236,20.34118665000312,21.745489821847592
443732.51645046077,19.790364136906188,19.08917876638054,20.505309672548933
454068.3745308609,18.51694881597775,17.808500081608134,19.235132411134025
464644.98567374283,17.22099472285785,16.50420661693403,17.943548555511555
475467.95773833245,15.906567255522507,15.182152811836112,16.633781876451927
486543.02920767735,14.57702305609253,13.844076397096988,15.307639874219705
497876.0722312665,13.235103840478047,12.492524595553956,13.969815845730123
509473.09573852154,11.88303195845526,11.1316265326227,12.620955219806609
521340.24862481083,10.52259949971133,9.762996068872274,11.263058469657281
533483.8230116749,9.155247016704562,8.387927823892841,9.897737062987272
545910.257582993,7.782130635985949,7.007458928730328,8.526286187789799
558626.1409988581,6.404177880918911,5.622419951630909,7.151020255672835
571638.215388972,5.022133308845362,4.2334762837212,5.774016500462876
584953.3799274113,3.636595368424682,2.841161426329922,4.393306708986156
598578.6944906615,2.248045913128583,1.4459035741943125,3.0094284040759844
612521.3834008563,0.8568736972860919,0.04804674439408896,1.6228159458590952
626788.8392562092,-0.536606988036694,-1.3521324784097999,0.23382130099415907
641388.626850667,-1.9321415651784237,-2.7544116900981708,-1.1572695109424451
656328.487184863,-3.3295235054719607,-4.158612182842527,-2.55022341266588
671616.341570499,-4.728585103129908,-5.56459064510115,-3.944849988727901
687260.295830329,-6.129190170310297,-6.972232581471061,-5.340993353558777
703268.6445959735,-7.531228243486013,-8.38144708522243,-6.738525710132441
719649.8757058439,-8.934609978047796,-9.792162674535291,-8.137342237613813
736412.6747055057,-10.339263477431109,-11.204323965663063,-9.537357023655685
753565.9294528705,-11.745131357971097,-12.617889005349843,-10.938499818446752
771118.7348306555,-13.152168393889195,-14.032827123382122,-12.340713436062856
789080.3975686108,-14.560339620646918,-15.449117196316193,-13.743951666679717
807460.4411780708,-15.969618801323204,-16.86674623696438,-15.148177592912988
826268.6110014459,-17.379987181267687,-18.285708242576646,-16.553362226717812
845514.879379332,-18.79143247232543,-19.706003248956772,-17.959483401324256
865209.4509379774,-20.203948020424072,-21.127636548902323,-19.366524866732327
885362.7679999112,-21.617532120052182,-22.5506180420576,-20.774475548229553
905985.5161206003,-23.03218744675355,-23.97496169006537,-22.18332893591799
927088.6297540724,-24.447920584696902,-25.400685056224518,-23.59308257988922
948683.298050509,-25.86474163102445,-26.827808913033397,-25.00373767088332
970780.9707888798,-27.282663862324682,-28.256356904281105,-26.41529869033665
993393.3644477681,-28.70170345143854,-29.68635525093722,-27.827773116916646
1016532.4684176022,-30.121879225063353,-31.117832492137666,-29.24117117915216
1040210.5513575893,-31.54321245440219,-32.55081925419015,-30.655505645746757
1064440.1677007207,-32.965726672518485,-33.985348041817026,-32.070791646727024
1089234.1643102982,-34.38944751317879,-35.42145304688945,-33.48704651981686
1114605.6872915116,-35.8144025668608,-36.859169970737895,-34.90428967741299
1140568.1889616773,-37.24062125031949,-38.29853585679515,-36.322542490320714
1167135.4349828353,-38.66813468667757,-39.739588930870156,-37.741828185034024
1194321.511660485,-40.09697559346756,-41.18236844679271,-39.162171751844205
1222140.8334123313,-41.52717817642476,-42.626914535528016,-40.583599861460804
1250608.150410999,-42.95877802713014,-44.073268056153346,-42.0061407881494
1279738.5564047706,-44.3918120228451,-45.52147044732794,-43.429824337647034
1309547.4967204903,-45.82631822707677,-46.97156357808116,-44.85468177832126
1340050.7764528815,-47.26233578956912,-48.42358959689909,-46.28074577420119
1371264.568844617,-48.69990484454382,-49.87759077821187,-47.70805031863918
1403205.4238615865,-50.139066406113606,-51.33360936547574,-49.136630667460324
1435890.2769679066,-51.57986225986902,-52.79168741010786,-50.56652327053605
1469336.45810533,-53.02233484969697,-54.25186660556905,-51.997765700772625
1503561.7008818078,-54.4665271589286,-55.714188115900065,-53.43039657954628
1538584.1519740853,-55.912482584936065,-57.17869239800006,-54.86445549763894
1574422.3807493083,-57.36024480630286,-58.64541901689052,-56.29998293073833
1611095.3891107484,-58.8098576416799,-60.11440645313111,-57.73702014856185
1648622.6215728635,-60.261364899408875,-61.58569190144436,-59.175609116644985
1687023.9755710368,-61.714810216944365,-63.05931105945901,-60.61579238980444
1726319.81201146,-63.17023688903348,-64.53529790529429,-62.05761299623896
1766530.9660667558,-64.62768768351478,-66.0136844624743,-63.501114311170056
1807678.758223062,-66.08720464347402,-67.49450055037823,-64.94633991884528
1849785.0055844348,-67.54882887433683,-68.97777351809165,-66.39333346162856
1892872.0334405678,-69.01260031428582,-70.46352795912095,-67.84213847478073
1936962.6871039541,-70.47855748615459,-71.9517854039589,-69.29279820538854
1982080.3440227753,-71.94673722866825,-73.44256398693679,-70.74535541372381
2028248.9261759322,-73.41717440456334,-74.93587808315766,-72.19985215510597
2075492.912756796,-74.88990158271908,-76.43173791056651,-73.65632954009217
2123837.3531524,-76.36494869096201,-77.93014909136575,-75.11482747052659
2173307.8802249557,-77.84234263565327,-79.43111216601436,-76.57538434863315
2223930.7239027377,-79.32210688352434,-80.93462205194642,-78.03803675593116
2275732.725087536,-80.80426100047998,-82.44066743789112,-79.50281909827702
2328741.3498860593,-82.28882014122246,-83.9492301032614,-80.96976321278098
2382984.7041728282,-83.77579448255673,-85.46028415048093,-82.43889793170206
2438491.548492281,-85.26518859209358,-86.97379513632887,-83.91024859767535
2495291.313307996,-86.75700072276382,-88.4897190863779,-85.38383652375897
2553414.114607112,-88.251222022071,-90.00800137437366,-86.85967839078886
2612890.769868224,-89.74783564332553,-91.52857544593726,-88.33778557338
2673752.814401218,-91.24681574420295,-93.05136136326425,-89.81816338459558
2736032.51806771,-92.74812635583376,-94.57626414454042,-91.30081022780044
2799762.9023909536,-94.25172010324609,-96.10317186861121,-92.78571664250563
2864977.7580642877,-95.7575367553349,-97.63195351205329,-94.27286422906938
2931711.6628674115,-97.26550157961336,-99.16245648225816,-95.76222443493563
2999999.999999979,-98.77552347381524,-100.69450380652339,-97.2537571826374
3069878.976842241,-100.28749284297703,-102.22850002171958,-98.74740931706003
3141385.6441526767,-101.80127918696654,-103.763863202035,-100.24311284643495
3214557.9157127966,-103.31672835959759,-105.30002702364968,-101.74078294821706
3289434.5884295315,-104.83365945657334,-106.8366694492378,-103.24031570740338
3366055.362905866,-106.35186128567143,-108.37342136785816,-104.74158555099851
3444460.864490623,-107.87108836902513,-109.90986044257097,-106.24444233828874
3524692.6648185626,-109.3910564243535,-111.44550423417004,-107.74870806243229
3606793.303852212,-110.91143726993431,-112.97980255724312,-109.25417311475435
3690806.312437117,-112.43185309752688,-114.51212903733088,-110.76059205924624
3776776.2353824736,-113.95187005901874,-116.04177185719831,-112.26767886140145
3864748.655079373,-115.47099111718654,-117.56792370802982,-113.77510151306285
3954770.215669192,-116.9886481197458,-119.08967099983927,-115.28247599393899
4046888.6477749306,-118.50419307021205,-120.60598243683705,-116.78935951157169
4141152.793808623,-120.01688859068162,-122.11569713021164,-118.2952429657059
4237612.6338682305,-121.52589760242594,-123.61751250475447,-119.79954259138049
4336319.312237749,-123.03027229237101,-125.10997235823231,-121.30159074905428
4437325.164504588,-124.5289424894324,-126.59182318986882,-122.80062585144115
4540683.745308589,-126.02070364653748,-128.06322797846997,-124.29578144749374
4646449.856737408,-127.50420471382847,-129.5205519834858,-125.78607452645994
4754679.577383303,-128.97793629691688,-130.96655103900903,-127.26956579258385
4865430.292076752,-130.44021962044698,-132.4320509323671,-128.7055568808261
4978760.722312642,-131.8891969583766,-133.88230155667338,-130.12751040591695
5094730.957385193,-133.32282434142684,-135.31519371411608,-131.53338446841656
5213402.486248085,-134.73886749744364,-136.73571584244854,-132.92097274034126
5334838.230116726,-136.13490210456172,-138.17298447370504,-134.23753458406048
5459102.575829906,-137.50831951650125,-139.61257103469907,-135.5094112624529
5586261.409988557,-138.85633912494947,-141.03235180442982,-136.74802995473132
5716382.153889695,-140.1760284234521,-142.4297060976183,-137.95047352654578
5849533.799274088,-141.46433159951835,-143.80181546004826,-139.11388259251473
5985786.94490659,-142.71810708397044,-145.14567736157508,-140.23551522982154
6125213.834008537,-143.93417392342488,-146.45812739084226,-141.31280773991074
6267888.392562066,-145.1093661343744,-147.73587091739142,-142.34343287417337
6413886.268506642,-146.24059340090383,-148.9755247815518,-143.3253517157041
6563284.871848603,-147.32490568354055,-150.1736689916824,-144.25685562395688
6716163.415704963,-148.35955863324114,-151.32690767102414,-145.13659534106134
6872602.958303262,-149.34207628092165,-152.4319376549806,-145.96359548071985
7032686.445959707,-150.2703074100361,-153.48562228095776,-146.69436146520732
